mV;time
0;0
1411;2
1407;4
1431;7
1452;9
1472;11
1466;13
1456;16
1452;18
1445;20
1440;23
1447;25
1463;27
1478;30
1478;32
1474;34
1460;36
1441;39
1430;41
1429;44
1434;47
1449;49
1461;51
1469;54
1465;56
1452;58
1443;61
1443;63
1442;65
1440;67
1440;70
1437;72
1444;74
1451;77
1467;79
1491;81
1509;84
1523;87
1524;89
1514;91
1490;94
1479;96
1463;98
1450;101
1441;103
1434;105
1434;108
1439;110
1442;112
1445;115
1456;117
1464;120
1465;122
1468;124
1473;128
1483;130
1479;132
1463;135
1444;137
1431;139
1424;142
1444;144
1474;146
1501;149
1490;151
1471;153
1447;156
1434;158
1426;161
1420;163
1416;165
1423;168
1430;171
1433;173
1436;176
1436;178
1433;180
1426;183
1415;185
1410;187
1409;190
1410;192
1413;194
1414;197
1408;199
1397;202
1394;204
1391;206
1397;209
1409;211
1419;214
1426;217
1429;219
1422;221
1413;224
1412;226
1413;228
1417;231
1417;233
1403;236
1385;238
1375;240
1377;243
1411;245
1436;247
1441;250
1418;252
1402;254
1390;258
1382;260
1378;262
1389;265
1393;267
1396;269
1389;272
1378;274
1373;277
1374;279
1372;281
1373;284
1386;286
1398;288
1417;291
1415;293
1401;295
1394;299
1381;301
1369;303
1363;306
1355;308
1362;310
1365;313
1373;315
1378;318
1380;320
1380;322
1376;325
1374;327
1373;329
1381;332
1389;334
1401;336
1412;339
1418;342
1429;344
1422;347
1425;349
1421;352
1400;354
1387;356
1369;359
1357;361
1360;363
1369;366
1376;368
1397;370
1418;373
1427;375
1418;377
1402;380
1382;382
1367;385
1367;388
1376;390
1385;393
1393;395
1404;397
1403;400
1391;402
1395;404
1407;407
1422;409
1424;411
1415;414
1417;416
1427;418
1428;421
1419;423
1403;425
1397;429
1405;431
1411;434
1410;436
1404;438
1394;441
1390;443
1390;445
1389;448
1395;450
1411;452
1433;455
1469;457
1485;459
1469;462
1440;464
1422;466
1413;470
1415;472
1424;475
1422;477
1422;479
1420;482
1434;484
1455;486
1475;489
1468;491
1453;493
1457;496
1470;498
1482;500
1474;503
1463;505
1456;507
1452;510
1446;513
1451;516
1456;518
1459;520
1448;523
1437;525
1451;527
1463;530
1466;532
1463;534
1466;537
1466;539
1460;541
1449;544
1444;546
1455;549
1487;551
1510;553
1515;557
1487;559
1458;561
1449;564
1457;566
1465;568
1474;571
1472;573
1480;575
1484;578
1493;580
1502;582
1504;585
1518;587
1539;590
1533;592
1519;594
1502;598
1480;600
1474;602
1477;605
1489;607
1491;609
1490;612
1486;614
1483;616
1477;619
1481;621
1490;623
1487;626
1492;628
1495;631
1496;633
1495;635
1488;638
1499;641
1506;643
1512;646
1510;648
1505;650
1504;653
1503;655
1497;657
1496;660
1493;662
1491;665
1491;667
1494;669
1502;672
1513;674
1516;676
1509;679
1503;681
1509;684
1520;687
1543;689
1553;691
1541;694
1520;696
1506;698
1512;701
1509;703
1508;706
1508;708
1521;710
1524;713
1525;715
1510;717
1493;720
1494;722
1499;724
1503;728
1509;730
1522;732
1534;735
1533;737
1567;739
1570;742
1560;744
1530;747
1507;749
1505;751
1497;754
1496;756
1498;758
1500;761
1509;763
1519;765
1520;769
1533;771
1567;773
1571;776
1559;778
1542;781
1535;783
1533;785
1532;788
1527;790
1516;792
1512;795
1509;797
1501;799
1498;802
1504;804
1510;806
1523;809
1540;812
1536;815
1539;817
1535;819
1522;822
1500;824
1476;826
1484;829
1504;831
1520;833
1530;836
1546;838
1553;840
1545;843
1520;845
1498;847
1491;850
1495;852
1492;856
1507;858
1525;860
1530;863
1515;865
1489;867
1482;870
1481;872
1490;874
1494;877
1486;879
1475;881
1463;884
1450;886
1448;888
1459;891
1473;893
1486;897
1491;899
1491;901
1493;904
1488;906
1476;908
1462;911
1467;913
1473;915
1476;918
1468;920
1467;922
1468;925
1467;927
1484;930
1499;932
1508;934
1504;937
1490;940
1474;942
1469;945
1462;947
1464;949
1477;952
1486;954
1489;956
1479;959
1464;961
1454;963
1449;966
1461;968
1477;971
1489;973
1482;975
1471;978
1476;980
1478;983
1478;986
1479;988
1480;990
1474;993
1470;995
1470;997
1472;1000
1471;1002
1471;1005
1473;1007
1486;1009
1499;1012
1498;1014
1494;1017
1493;1019
1498;1021
1507;1025
1513;1027
1525;1030
1538;1032
1546;1034
1555;1037
1550;1039
1526;1042
1513;1044
1514;1047
1529;1049
1530;1051
1531;1054
1537;1056
1538;1059
1538;1061
1541;1063
1536;1067
1526;1069
1522;1072
1516;1074
1513;1076
1510;1079
1508;1081
1523;1084
1543;1086
1554;1088
1552;1091
1537;1093
1532;1096
1524;1098
1516;1100
1512;1103
1511;1105
1519;1108
1535;1111
1531;1113
1525;1116
1539;1118
1547;1121
1542;1123
1525;1125
1510;1128
1510;1130
1510;1133
1514;1135
1523;1138
1530;1140
1527;1142
1514;1145
1522;1147
1537;1150
1549;1153
1543;1155
1533;1158
1526;1160
1529;1163
1523;1165
1517;1167
1513;1170
1514;1172
1520;1175
1526;1177
1522;1179
1515;1182
1519;1184
1531;1187
1551;1189
1573;1191
1574;1195
1568;1197
1549;1200
1537;1202
1531;1204
1543;1207
1539;1209
1527;1212
1521;1214
1523;1217
1521;1219
1518;1221
1517;1224
1509;1226
1508;1229
1519;1231
1534;1233
1543;1236
1539;1239
1529;1242
1517;1244
1509;1246
1520;1249
1537;1251
1541;1254
1549;1256
1545;1258
1534;1261
1528;1263
1526;1266
1529;1268
1547;1270
1552;1273
1547;1275
1541;1278
1537;1281
1534;1283
1529;1286
1530;1288
1545;1291
1557;1293
1560;1295
1555;1298
1545;1300
1542;1303
1544;1305
1543;1308
1543;1310
1542;1312
1542;1315
1540;1317
1533;1320
1524;1323
1528;1325
1535;1328
1538;1330
1540;1333
1541;1335
1542;1337
1542;1340
1544;1342
1551;1345
1558;1347
1569;1349
1573;1352
1579;1354
1574;1357
1559;1359
1545;1361
1537;1364
1538;1367
1552;1370
1562;1372
1574;1374
1578;1377
1563;1379
1546;1382
1537;1384
1530;1386
1551;1389
1574;1391
1591;1394
1595;1396
1592;1399
1579;1401
1568;1403
1558;1406
1551;1409
1550;1412
1555;1414
1564;1416
1566;1419
1562;1421
1556;1424
1548;1426
1546;1428
1555;1431
1561;1433
1559;1436
1558;1438
1554;1440
1551;1443
1547;1445
1547;1448
1560;1451
1574;1453
1582;1456
1590;1458
1586;1461
1571;1463
1572;1465
1576;1468
1584;1470
1591;1473
1598;1475
1596;1478
1596;1480
1595;1482
1587;1485
1573;1487
1565;1490
1558;1492
1553;1495
1545;1498
1541;1500
1533;1503
1531;1505
1529;1507
1527;1510
1529;1512
1538;1515
1558;1517
1570;1519
1575;1522
1576;1524
1571;1527
1574;1529
1574;1531
1569;1534
1564;1537
1548;1540
1544;1542
1540;1544
1528;1547
1526;1549
1533;1552
1546;1554
1554;1557
1561;1559
1570;1561
1575;1564
1581;1566
1595;1569
1604;1571
1601;1573
1599;1576
1587;1579
1570;1582
1543;1584
1527;1586
1525;1589
1537;1591
1554;1594
1564;1596
1563;1598
1545;1601
1529;1603
1519;1606
1527;1608
1547;1610
1551;1613
1554;1615
1556;1618
1552;1620
1541;1623
1532;1626
1530;1628
1544;1631
1551;1633
1553;1635
1552;1638
1548;1640
1546;1643
1540;1645
1538;1648
1552;1650
1589;1652
1607;1655
1595;1657
1563;1660
1543;1662
1527;1665
1519;1668
1523;1670
1529;1673
1537;1675
1541;1677
1544;1680
1551;1682
1557;1685
1551;1687
1537;1689
1531;1692
1533;1694
1540;1697
1530;1699
1524;1701
1521;1704
1512;1707
1514;1710
1525;1712
1534;1714
1546;1717
1566;1719
1570;1722
1559;1724
1544;1726
1543;1729
1550;1731
1563;1734
1580;1736
1601;1739
1600;1741
1594;1743
1581;1746
1560;1748
1542;1752
1535;1754
1541;1756
1542;1759
1535;1761
1527;1764
1526;1766
1527;1768
1536;1771
1542;1773
1547;1776
1545;1778
1542;1780
1547;1783
1549;1785
1550;1788
1558;1790
1565;1793
1561;1796
1556;1798
1542;1801
1540;1803
1536;1805
1532;1808
1540;1810
1541;1813
1536;1815
1528;1817
1516;1820
1517;1822
1539;1825
1556;1827
1560;1830
1550;1832
1541;1835
1533;1838
1520;1840
1504;1843
1495;1845
1503;1847
1519;1850
1533;1852
1531;1855
1532;1857
1525;1859
1513;1862
1503;1864
1499;1867
1507;1869
1516;1871
1522;1874
1530;1876
1524;1880
1513;1882
1511;1884
1518;1887
1527;1889
1521;1892
1514;1894
1515;1896
1511;1899
1499;1901
1489;1904
1487;1906
1488;1909
1493;1911
1502;1913
1512;1916
1518;1918
1519;1922
1533;1924
1529;1926
1519;1929
1511;1931
1505;1934
1504;1936
1503;1938
1501;1941
1502;1943
1506;1946
1511;1948
1519;1950
1523;1953
1521;1955
1524;1958
1523;1960
1519;1963
1516;1966
1515;1968
1518;1971
1521;1973
1521;1975
1521;1978
1517;1980
1513;1983
1512;1985
1515;1987
1520;1990
1531;1992
1541;1995
1538;1997
1528;2000
1534;2002
1540;2004
1544;2008
1543;2010
1534;2013
1526;2015
1521;2017
1515;2020
1506;2022
1501;2025
1501;2027
1516;2029
1527;2032
1543;2034
1550;2037
1540;2039
1528;2041
1523;2044
1517;2046
1515;2050
1517;2052
1518;2054
1524;2057
1533;2059
1539;2062
1543;2064
1538;2066
1532;2069
1534;2071
1530;2074
1523;2076
1514;2078
1501;2081
1497;2083
1521;2086
1543;2088
1555;2092
1544;2094
1533;2096
1530;2099
1531;2101
1536;2104
1541;2106
1541;2108
1537;2111
1534;2113
1534;2116
1528;2118
1519;2120
1517;2123
1514;2125
1520;2128
1532;2130
1535;2132
1530;2136
1521;2138
1514;2141
1513;2143
1514;2145
1515;2148
1519;2150
1527;2153
1534;2155
1531;2157
1526;2160
1524;2162
1527;2165
1530;2167
1533;2169
1531;2172
1536;2174
1548;2178
1555;2180
1547;2183
1531;2185
1525;2187
1527;2190
1529;2192
1530;2195
1532;2197
1528;2199
1523;2202
1517;2204
1515;2207
1524;2209
1533;2211
1534;2214
1533;2216
1530;2220
1533;2222
1550;2224
1556;2227
1547;2229
1529;2232
1533;2234
1554;2237
1553;2239
1537;2241
1526;2244
1519;2246
1515;2249
1522;2251
1529;2253
1538;2256
1543;2258
1539;2262
1525;2264
1507;2266
1499;2269
1500;2271
1506;2274
1513;2276
1514;2278
1511;2281
1509;2283
1506;2286
1505;2288
1511;2290
1520;2293
1526;2295
1525;2298
1515;2300
1501;2302
1492;2306
1486;2308
1489;2311
1499;2313
1509;2315
1517;2318
1516;2320
1507;2323
1499;2325
1490;2328
1492;2330
1502;2332
1509;2335
1512;2337
1510;2340
1502;2342
1497;2344
1498;2348
1504;2350
1508;2353
1510;2355
1516;2357
1519;2360
1519;2362
1519;2365
1518;2367
1525;2369
1532;2372
1544;2374
1550;2377
1548;2379
1541;2381
1529;2384
1519;2386
1520;2390
1531;2392
1534;2395
1534;2397
1529;2399
1520;2402
1522;2404
1529;2407
1534;2409
1540;2411
1540;2414
1543;2416
1540;2419
1533;2421
1519;2423
1512;2426
1515;2428
1524;2432
1530;2434
1536;2436
1534;2439
1534;2441
1536;2444
1535;2446
1530;2448
1527;2451
1524;2453
1519;2456
1508;2458
1501;2460
1502;2463
1516;2465
1529;2468
1546;2470
1554;2473
1548;2476
1544;2478
1541;2481
1534;2483
1527;2486
1524;2488
1522;2490
1528;2493
1535;2495
1539;2498
1537;2500
1529;2502
1524;2505
1520;2507
1521;2510
1523;2512
1532;2514
1539;2518
1540;2520
1536;2523
1529;2525
1525;2527
1525;2530
1527;2532
1525;2535
1524;2537
1524;2539
1526;2542
1530;2544
1527;2547
1527;2549
1531;2552
1533;2554
1536;2556
1533;2560
1537;2562
1544;2565
1548;2567
1548;2569
1546;2572
1534;2574
1522;2577
1513;2579
1506;2581
1498;2584
1498;2586
1506;2589
1519;2591
1521;2593
1528;2596
1533;2598
1532;2601
1529;2604
1521;2606
1512;2609
1518;2611
1529;2614
1541;2616
1543;2618
1531;2621
1521;2623
1518;2626
1518;2628
1518;2630
1513;2633
1507;2635
1500;2638
1501;2640
1512;2642
1509;2646
1501;2648
1514;2651
1530;2653
1527;2656
1521;2658
1515;2660
1511;2663
1516;2665
1525;2668
1528;2670
1527;2672
1518;2675
1512;2677
1504;2680
1493;2682
1487;2684
1484;2688
1491;2690
1501;2693
1513;2695
1513;2697
1503;2700
1497;2702
1502;2705
1516;2707
1524;2709
1520;2712
1508;2714
1497;2717
1487;2719
1484;2721
1475;2724
1469;2726
1477;2729
1497;2732
1506;2735
1500;2737
1490;2739
1479;2742
1469;2744
1467;2747
1473;2749
1486;2751
1490;2754
1486;2756
1478;2759
1475;2761
1473;2763
1474;2766
1480;2768
1489;2771
1487;2774
1494;2776
1500;2779
1495;2781
1486;2784
1467;2786
1463;2788
1470;2791
1482;2793
1491;2796
1491;2798
1478;2800
1466;2803
1462;2805
1457;2808
1461;2810
1468;2812
1484;2816
1499;2818
1491;2821
1469;2823
1451;2826
1442;2828
1437;2830
1441;2833
1445;2835
1456;2838
1465;2840
1465;2842
1456;2845
1461;2847
1469;2850
1470;2852
1461;2854
1457;2857
1453;2860
1450;2863
1445;2865
1441;2867
1441;2870
1443;2872
1445;2875
1454;2877
1460;2879
1468;2882
1479;2884
1480;2887
1473;2889
1463;2891
1455;2894
1447;2896
1447;2899
1444;2902
1441;2904
1441;2907
1450;2909
1459;2912
1458;2914
1456;2916
1452;2919
1453;2921
1461;2924
1468;2926
1473;2928
1481;2931
1482;2933
1481;2936
1468;2938
1460;2941
1449;2944
1442;2946
1434;2949
1432;2951
1430;2954
1432;2956
1438;2958
1439;2961
1439;2963
1444;2966
1445;2968
1448;2970
1454;2973
1462;2975
1471;2978
1468;2980
1462;2982
1457;2985
1453;2988
1452;2991
1450;2993
1449;2995
1456;2998
1463;3000
1471;3003
1481;3005
1489;3007
1501;3010
1496;3012
1489;3015
1479;3017
1464;3020
1449;3022
1446;3024
1452;3027
1461;3030
1465;3033
1460;3035
1457;3037
1454;3040
1451;3042
1453;3045
1452;3047
1456;3049
1467;3052
1476;3054
1477;3057
1475;3059
1471;3061
1473;3064
1478;3066
1485;3069
1491;3072
1493;3074
1490;3077
1492;3079
1489;3082
1489;3084
1484;3086
1488;3089
1492;3091
1492;3094
1500;3096
1503;3098
1504;3101
1500;3103
1495;3106
1501;3108
1505;3111
1503;3113
1501;3116
1498;3119
1493;3121
1490;3124
1493;3126
1500;3128
1518;3131
1521;3133
1514;3136
1502;3138
1487;3140
1480;3143
1482;3145
1488;3148
1513;3150
1533;3152
1532;3155
1525;3158
1517;3161
1509;3163
1507;3165
1507;3168
1515;3170
1526;3173
1533;3175
1535;3178
1527;3180
1514;3182
1503;3185
1498;3187
1509;3190
1523;3192
1544;3194
1553;3197
1562;3200
1557;3203
1553;3205
1546;3207
1551;3210
1566;3212
1566;3215
1551;3217
1543;3219
1537;3222
1533;3224
1529;3227
1528;3229
1541;3231
1548;3234
1549;3236
1550;3239
1547;3241
1541;3244
1536;3247
1543;3249
1562;3252
1580;3254
1582;3256
1585;3259
1581;3261
1570;3264
1556;3266
1547;3269
1544;3271
1533;3273
1527;3276
1544;3278
1552;3281
1546;3283
1538;3286
1538;3289
1558;3291
1575;3294
1589;3296
1583;3298
1573;3301
1565;3303
1555;3306
1547;3308
1547;3310
1554;3313
1561;3315
1565;3318
1559;3320
1549;3322
1540;3325
1537;3328
1546;3331
1555;3333
1562;3335
1567;3338
1562;3340
1549;3343
1540;3345
1537;3347
1545;3350
1561;3352
1565;3355
1556;3357
1549;3360
1543;3362
1542;3364
1543;3367
1544;3369
1546;3373
1545;3375
1551;3377
1552;3380
1561;3382
1554;3385
1539;3387
1536;3389
1542;3392
1545;3394
1547;3397
1551;3399
1543;3401
1532;3404
1526;3406
1535;3409
1546;3411
1554;3414
1552;3417
1550;3419
1548;3422
1540;3424
1533;3427
1532;3429
1537;3431
1531;3434
1523;3436
1520;3439
1523;3441
1522;3443
1521;3446
1523;3448
1535;3451
1541;3453
1545;3456
1546;3459
1541;3461
1538;3464
1532;3466
1527;3468
1533;3471
1541;3473
1549;3476
1561;3478
1554;3480
1536;3483
1527;3485
1514;3488
1509;3490
1515;3492
1521;3495
1526;3497
1525;3501
1524;3503
1524;3506
1523;3508
1529;3510
1547;3513
1557;3515
1551;3518
1539;3520
1530;3522
1526;3525
1524;3527
1525;3530
1526;3532
1529;3534
1534;3537
1536;3539
1532;3543
1527;3545
1522;3547
1528;3550
1542;3552
1551;3555
1558;3557
1560;3559
1554;3562
1547;3564
1543;3567
1545;3569
1544;3571
1539;3574
1534;3576
1535;3579
1533;3581
1525;3585
1517;3587
1515;3589
1522;3592
1527;3594
1531;3597
1534;3599
1532;3601
1529;3604
1528;3606
1530;3609
1537;3611
1539;3613
1543;3616
1545;3618
1539;3621
1533;3623
1531;3625
1535;3629
1545;3631
1563;3634
1570;3636
1561;3638
1550;3641
1539;3643
1531;3646
1528;3648
1531;3650
1538;3653
1546;3655
1545;3658
1537;3660
1526;3663
1516;3665
1513;3667
1516;3671
1522;3673
1528;3676
1533;3678
1530;3680
1523;3683
1519;3685
1513;3688
1517;3690
1523;3692
1526;3695
1530;3697
1525;3700
1535;3702
1545;3704
1539;3707
1530;3709
1525;3713
1522;3715
1521;3717
1521;3720
1519;3722
1516;3725
1508;3727
1505;3730
1504;3732
1511;3734
1520;3737
1522;3739
1525;3742
1531;3744
1535;3746
1547;3749
1565;3751
1574;3755
1577;3757
1560;3759
1544;3762
1535;3764
1532;3767
1534;3769
1545;3771
1556;3774
1569;3776
1570;3779
1568;3781
1567;3783
1567;3786
1573;3788
1587;3791
1597;3793
1606;3795
1600;3799
1586;3801
1574;3804
1560;3806
1550;3809
1547;3811
1550;3813
1559;3816
1569;3818
1573;3821
1571;3823
1561;3825
1554;3828
1552;3830
1557;3833
1565;3835
1580;3837
1589;3841
1590;3843
1584;3846
1580;3848
1582;3850
1586;3853
1583;3855
1572;3858
1563;3860
1553;3862
1549;3865
1545;3867
1548;3870
1552;3872
1559;3875
1566;3877
1574;3879
1575;3883
1568;3885
1548;3888
1536;3890
1542;3892
1543;3895
1543;3897
1546;3900
1550;3902
1551;3904
1544;3907
1533;3909
1528;3912
1533;3914
1544;3916
1545;3919
1534;3921
1530;3924
1533;3927
1537;3929
1543;3932
1537;3934
1524;3937
1508;3939
1501;3941
1505;3944
1512;3946
1514;3949
1513;3951
1512;3954
1510;3956
1512;3958
1512;3961
1515;3963
1517;3966
1514;3969
1519;3971
1530;3974
1526;3976
1512;3979
1499;3981
1492;3983
1497;3986
1501;3988
1513;3991
1515;3993
1507;3995
1506;3998
1508;4000
1509;4003
1509;4005
1494;4007
1490;4011
1503;4013
1510;4016
1520;4018
1516;4021
1498;4023
1486;4025
1490;4028
1502;4030
1511;4033
1520;4035
1516;4037
1506;4040
1492;4042
1476;4045
1467;4047
1473;4049
1482;4052
1480;4055
1477;4058
1477;4060
1475;4062
1487;4065
1495;4067
1504;4070
1502;4072
1492;4074
1480;4077
1474;4079
1465;4082
1456;4084
1454;4086
1457;4089
1465;4091
1469;4094
1470;4097
1463;4099
1469;4102
1474;4104
1471;4107
1473;4109
1484;4111
1489;4114
1487;4116
1482;4119
1477;4121
1473;4124
1471;4126
1469;4128
1474;4131
1476;4133
1478;4136
1483;4139
1483;4141
1478;4144
1475;4146
1476;4149
1477;4151
1493;4153
1502;4156
1499;4158
1493;4161
1492;4163
1487;4165
1475;4168
1469;4170
1471;4173
1473;4175
1474;4177
1473;4180
1476;4183
1491;4186
1497;4188
1500;4190
1498;4193
1494;4195
1493;4198
1490;4200
1489;4203
1492;4205
1495;4207
1498;4210
1499;4212
1498;4215
1508;4217
1509;4219
1499;4222
1492;4225
1489;4228
1493;4230
1510;4232
1525;4235
1531;4237
1519;4240
1510;4242
1505;4244
1498;4247
1493;4249
1490;4252
1486;4254
1490;4256
1497;4259
1499;4261
1494;4264
1486;4267
1482;4269
1488;4272
1497;4274
1502;4277
1502;4279
1497;4282
1492;4284
1491;4286
1499;4289
1510;4291
1511;4294
1510;4296
1516;4298
1516;4301
1509;4303
1492;4306
1483;4308
1492;4311
1502;4314
1498;4316
1490;4319
1488;4321
1489;4323
1490;4326
1488;4328
1487;4331
1488;4333
1497;4335
1505;4338
1508;4340
1502;4343
1494;4345
1484;4348
1479;4350
1494;4353
1502;4356
1500;4358
1493;4361
1482;4363
1469;4365
1463;4368
1459;4370
1463;4373
1467;4375
1477;4377
1481;4380
1483;4382
1485;4385
1486;4387
1488;4389
1489;4392
1490;4395
1495;4398
1492;4400
1486;4402
1480;4405
1476;4407
1471;4410
1478;4412
1483;4414
1492;4417
1505;4419
1513;4422
1519;4424
1517;4427
1513;4429
1508;4431
1498;4434
1490;4436
1486;4440
1474;4442
1461;4444
1456;4447
1462;4449
1472;4452
1481;4454
1485;4456
1491;4459
1493;4461
1488;4464
1502;4466
1516;4468
1527;4471
1529;4473
1523;4476
1511;4478
1501;4481
1490;4484
1483;4486
1485;4489
1492;4491
1494;4493
1492;4496
1489;4498
1479;4501
1467;4503
1466;4505
1466;4508
1474;4510
1482;4513
1490;4515
1488;4518
1478;4520
1485;4523
1496;4526
1498;4528
1492;4531
1487;4533
1487;4535
1492;4538
1488;4540
1482;4543
1483;4545
1481;4547
1479;4550
1491;4552
1502;4555
1504;4557
1506;4559
1503;4562
1493;4564
1483;4568
1486;4570
1492;4572
1495;4575
1493;4577
1485;4580
1471;4582
1466;4585
1466;4587
1475;4589
1482;4592
1490;4594
1498;4597
1510;4599
1524;4601
1536;4604
1527;4606
1514;4610
1498;4612
1488;4614
1481;4617
1479;4619
1484;4622
1485;4624
1492;4626
1484;4629
1472;4631
1465;4634
1472;4636
1484;4638
1501;4641
1522;4643
1549;4646
1569;4648
1569;4651
1554;4654
1540;4656
1528;4659
1516;4661
1502;4664
1496;4666
1494;4668
1500;4671
1505;4673
1507;4676
1512;4678
1520;4680
1517;4683
1511;4685
1504;4688
1501;4690
1501;4692
1510;4696
1526;4698
1534;4701
1541;4703
1539;4705
1537;4708
1531;4710
1523;4713
1517;4715
1515;4717
1516;4720
1511;4722
1508;4725
1505;4727
1514;4730
1523;4732
1525;4734
1522;4738
1518;4740
1504;4743
1492;4745
1489;4747
1494;4750
1513;4752
1523;4755
1517;4757
1508;4759
1507;4762
1508;4764
1506;4767
1503;4769
1508;4771
1512;4774
1505;4776
1504;4780
1502;4782
1500;4784
1512;4787
1526;4789
1533;4792
1532;4794
1528;4797
1530;4799
1534;4801
1530;4804
1524;4806
1516;4809
1511;4811
1505;4813
1499;4816
1514;4818
1520;4822
1503;4824
1488;4826
1484;4829
1489;4831
1503;4834
1513;4836
1517;4838
1512;4841
1500;4843
1489;4846
1479;4848
1480;4850
1484;4853
1492;4855
1501;4858
1514;4860
1516;4862
1512;4866
1492;4868
1483;4871
1493;4873
1506;4876
1509;4878
1501;4880
1485;4883
1477;4885
1473;4888
1474;4890
1478;4892
1481;4895
1490;4897
1495;4900
1492;4902
1491;4904
1488;4908
1484;4910
1486;4913
1494;4915
1517;4917
1520;4920
1510;4922
1494;4925
1488;4927
1493;4929
1505;4932
1508;4934
1497;4937
1486;4939
1478;4941
1472;4944
1470;4946
1470;4950
1484;4952
1495;4955
1508;4957
1516;4959
1520;4962
1516;4964
1511;4967
1509;4969
1513;4971
1524;4974
1532;4976
1538;4979
1533;4981
1525;4983
1511;4986
1510;4988
1534;4992
1560;4994
1569;4996
1560;4999
1534;5001
1508;5004
1503;5006
1504;5008
1519;5011
1528;5013
1520;5016
1514;5018
1504;5020
1513;5023
1537;5025
1553;5028
1561;5030
1575;5033
1570;5036
1559;5038
1553;5041
1541;5043
1524;5046
1530;5048
1542;5050
1541;5053
1533;5055
1519;5058
1507;5060
1497;5062
1482;5065
1472;5067
1461;5070
1475;5072
1485;5074
1479;5078
1472;5080
1466;5083
1460;5085
1454;5087
1455;5090
1463;5092
1474;5095
1485;5097
1498;5100
1502;5102
1497;5104
1508;5107
1516;5109
1500;5112
1486;5114
1479;5116
1476;5120
1467;5122
1456;5125
1447;5127
1445;5129
1449;5132
1457;5134
1460;5137
1462;5139
1457;5141
1453;5144
1455;5146
1464;5149
1497;5151
1531;5153
1551;5156
1538;5158
1513;5161
1483;5164
1468;5166
1462;5169
1464;5171
1473;5174
1474;5176
1472;5178
1471;5181
1472;5183
1474;5186
1473;5188
1474;5191
1476;5193
1494;5195
1507;5198
1530;5200
1544;5203
1532;5206
1502;5208
1489;5211
1486;5213
1484;5216
1484;5218
1483;5220
1480;5223
1478;5225
1475;5228
1473;5230
1483;5232
1491;5235
1503;5237
1508;5240
1500;5242
1491;5244
1486;5248
1495;5250
1521;5253
1534;5255
1527;5257
1514;5260
1500;5262
1516;5265
1530;5267
1518;5270
1502;5272
1497;5274
1494;5277
1495;5279
1490;5282
1482;5284
1479;5286
1480;5289
1486;5292
1492;5295
1493;5297
1494;5299
1490;5302
1487;5304
1487;5307
1486;5309
1493;5311
1493;5314
1488;5316
1497;5319
1503;5321
1491;5323
1477;5326
1472;5328
1477;5331
1481;5334
1483;5336
1489;5339
1493;5341
1492;5344
1491;5346
1490;5348
1491;5351
1496;5353
1498;5356
1491;5358
1484;5361
1476;5363
1476;5365
1479;5368
1485;5370
1493;5373
1498;5376
1494;5378
1490;5381
1492;5383
1490;5386
1495;5388
1502;5390
1502;5393
1497;5395
1502;5398
1505;5400
1508;5402
1509;5405
1501;5407
1498;5410
1511;5412
1517;5414
1520;5417
1511;5420
1497;5423
1486;5425
1488;5428
1495;5430
1501;5432
1498;5435
1492;5437
1485;5440
1476;5442
1475;5444
1476;5447
1475;5449
1489;5452
1502;5454
1507;5456
1503;5459
1497;5462
1490;5465
1485;5467
1496;5469
1507;5472
1514;5474
1513;5477
1511;5479
1505;5481
1490;5484
1476;5486
1470;5489
1473;5491
1477;5493
1481;5496
1486;5498
1491;5501
1491;5504
1491;5507
1492;5509
1492;5511
1491;5514
1488;5516
1484;5519
1496;5521
1512;5523
1524;5526
1523;5528
1510;5531
1499;5533
1496;5535
1499;5538
1501;5540
1517;5543
1528;5545
1529;5548
1533;5551
1522;5553
1505;5556
1501;5558
1502;5560
1494;5563
1487;5565
1483;5568
1479;5570
1491;5572
1500;5575
1523;5577
1541;5580
1555;5582
1549;5585
1525;5587
1499;5590
1489;5593
1470;5595
1462;5598
1472;5600
1479;5602
1477;5605
1477;5607
1484;5610
1491;5612
1486;5614
1479;5617
1475;5619
1477;5622
1490;5624
1508;5626
1522;5629
1533;5632
1552;5635
1556;5637
1538;5639
1517;5642
1492;5644
1480;5647
1487;5649
1492;5651
1513;5654
1509;5656
1498;5659
1493;5661
1487;5663
1476;5666
1467;5668
1472;5671
1479;5673
1483;5677
1489;5679
1479;5681
1472;5684
1466;5686
1459;5689
1456;5691
1461;5693
1475;5696
1483;5698
1482;5701
1482;5703
1485;5705
1495;5708
1511;5710
1510;5713
1493;5715
1474;5718
1496;5721
1529;5723
1520;5726
1491;5728
1483;5730
1491;5733
1503;5735
1507;5738
1507;5740
1505;5743
1503;5745
1500;5747
1505;5750
1510;5752
1513;5755
1517;5757
1509;5760
1506;5763
1500;5765
1489;5768
1487;5770
1498;5772
1507;5775
1507;5777
1502;5780
1505;5782
1511;5784
1509;5787
1516;5789
1523;5792
1520;5794
1515;5796
1511;5799
1506;5801
1503;5805
1507;5807
1510;5809
1521;5812
1531;5814
1534;5817
1527;5819
1515;5822
1504;5824
1508;5826
1501;5829
1501;5831
1512;5834
1520;5836
1533;5838
1531;5841
1520;5843
1503;5847
1499;5849
1503;5851
1504;5854
1511;5856
1521;5859
1524;5861
1523;5863
1519;5866
1517;5868
1510;5871
1501;5873
1503;5875
1507;5878
1505;5880
1502;5883
1494;5885
1496;5888
1503;5891
1506;5893
1510;5896
1525;5898
1546;5901
1537;5903
1527;5905
1521;5908
1518;5910
1514;5913
1502;5915
1506;5917
1507;5920
1499;5922
1492;5925
1492;5927
1494;5929
1501;5933
1506;5935
1512;5938
1514;5940
1501;5942
1498;5945
1499;5947
1499;5950
1509;5952
1522;5954
1532;5957
1527;5959
1527;5962
1535;5964
1554;5966
1552;5969
1551;5971
1542;5975
1529;5977
1510;5980
1494;5982
1486;5984
1486;5987
1505;5989
1542;5992
1540;5994
1516;5996
1514;5999
1519;6001
1523;6004
1526;6006
1514;6008
1502;6011
1517;6013
1518;6017
1525;6019
1532;6021
1538;6024
1526;6026
1515;6029
1509;6031
1509;6033
1508;6036
1513;6038
1512;6041
1507;6043
1493;6046
1486;6048
1501;6050
1517;6053
1526;6055
1510;6059
1486;6061
1473;6063
1488;6066
1506;6068
1512;6071
1526;6073
1542;6075
1551;6078
1556;6080
1546;6083
1520;6085
1496;6087
1482;6090
1474;6092
1476;6095
1477;6097
1486;6099
1498;6103
1503;6105
1512;6108
1522;6110
1539;6113
1536;6115
1539;6117
1542;6120
1534;6122
1517;6125
1509;6127
1502;6129
1500;6132
1492;6134
1484;6137
1501;6139
1516;6141
1516;6145
1515;6147
1509;6150
1518;6152
1534;6154
1541;6157
1552;6159
1549;6162
1545;6164
1535;6166
1522;6169
1518;6171
1527;6174
1533;6176
1546;6178
1536;6181
1524;6183
1508;6187
1522;6189
1536;6192
1543;6194
1559;6196
1578;6199
1593;6201
1583;6204
1562;6206
1538;6208
1522;6211
1520;6213
1526;6216
1539;6218
1548;6220
1549;6223
1541;6225
1536;6228
1532;6231
1520;6233
1525;6236
1529;6238
1531;6241
1523;6243
1506;6245
1506;6248
1515;6250
1531;6253
1550;6255
1564;6258
1577;6260
1575;6262
1558;6265
1542;6267
1532;6270
1543;6273
1540;6275
1525;6278
1514;6280
1510;6283
1506;6285
1508;6287
1512;6290
1526;6292
1558;6295
1565;6297
1556;6299
1542;6302
1526;6304
1523;6307
1547;6309
1560;6312
1554;6315
1544;6317
1524;6320
1512;6322
1500;6325
1512;6327
1502;6329
1493;6332
1489;6334
1494;6337
1496;6339
1505;6341
1523;6344
1527;6346
1519;6349
1519;6351
1524;6353
1532;6356
1553;6359
1548;6362
1521;6364
1506;6366
1499;6369
1504;6371
1512;6374
1527;6376
1526;6379
1517;6381
1517;6383
1532;6386
1539;6388
1545;6391
1546;6393
1546;6395
1551;6398
1552;6401
1536;6404
1534;6406
1553;6408
1575;6411
1578;6413
1565;6416
1541;6418
1527;6420
1530;6423
1526;6425
1505;6428
1499;6430
1509;6432
1513;6435
1505;6437
1499;6440
1492;6443
1499;6445
1504;6448
1507;6450
1519;6453
1535;6455
1541;6457
1539;6460
1520;6462
1501;6465
1487;6467
1469;6470
1453;6472
1450;6474
1456;6477
1485;6479
1498;6482
1494;6484
1492;6487
1487;6490
1496;6492
1507;6495
1501;6497
1496;6499
1474;6502
1443;6504
1429;6507
1432;6509
1438;6511
1450;6514
1458;6516
1464;6519
1489;6521
1486;6523
1458;6526
1432;6529
1422;6532
1427;6534
1434;6536
1453;6539
1464;6541
1469;6544
1473;6546
1473;6548
1480;6551
1489;6553
1480;6556
1468;6558
1460;6561
1463;6563
1451;6565
1440;6568
1446;6571
1440;6574
1426;6576
1419;6578
1416;6581
1409;6583
1402;6586
1383;6588
1377;6590
1384;6593
1393;6595
1407;6598
1425;6600
1450;6602
1476;6605
1475;6607
1464;6610
1438;6612
1414;6615
1401;6618
1396;6620
1391;6623
1387;6625
1381;6627
1382;6630
1397;6632
1416;6635
1432;6637
1429;6639
1414;6642
1400;6644
1386;6647
1377;6649
1369;6651
1370;6654
1377;6657
1388;6660
1392;6662
1391;6665
1387;6667
1387;6669
1413;6672
1435;6674
1430;6677
1408;6679
1386;6681
1375;6684
1376;6686
1392;6689
1409;6691
1414;6693
1406;6696
1401;6699
1396;6702
1395;6704
1423;6706
1444;6709
1451;6711
1436;6714
1425;6716
1420;6718
1417;6721
1412;6723
1400;6726
1384;6728
1376;6730
1380;6733
1386;6735
1392;6738
1399;6740
1421;6744
1459;6746
1468;6748
1440;6751
1427;6753
1423;6756
1413;6758
1406;6760
1398;6763
1397;6765
1403;6768
1423;6770
1441;6772
1445;6775
1425;6777
1396;6780
1379;6782
1364;6785
1360;6788
1363;6790
1369;6793
1398;6795
1443;6797
1465;6800
1461;6802
1443;6805
1433;6807
1411;6809
1396;6812
1391;6814
1393;6817
1399;6819
1401;6821
1400;6824
1446;6827
1483;6830
1497;6832
1466;6835
1426;6837
1415;6839
1409;6842
1409;6844
1457;6847
1502;6849
1509;6851
1476;6854
1436;6856
1418;6859
1421;6861
1428;6863
1417;6866
1399;6868
1395;6872
1401;6874
1410;6876
1425;6879
1429;6881
1421;6884
1414;6886
1417;6888
1434;6891
1445;6893
1442;6896
1436;6898
1426;6900
1424;6903
1441;6905
1474;6908
1533;6910
1569;6914
1549;6916
1516;6918
1516;6921
1514;6923
1491;6926
1464;6928
1442;6930
1448;6933
1470;6935
1502;6938
1521;6940
1518;6942
1492;6945
1466;6947
1459;6950
1462;6952
1463;6955
1466;6958
1479;6960
1489;6963
1486;6965
1480;6967
1492;6970
1520;6972
1562;6975
1587;6977
1608;6979
1589;6982
1540;6984
1496;6987
1471;6989
1451;6992
1443;6994
1440;6996
1444;7000
1469;7002
1507;7005
1538;7007
1520;7009
1498;7012
1468;7014
1443;7017
1430;7019
1425;7021
1437;7024
1448;7026
1452;7029
1453;7031
1458;7033
1464;7036
1467;7038
1465;7042
1469;7044
1477;7046
1486;7049
1539;7051
1571;7054
1554;7056
1521;7059
1480;7061
1456;7063
1440;7066
1444;7068
1461;7071
1494;7073
1513;7075
1509;7078
1505;7080
1497;7084
1480;7086
1457;7088
1431;7091
1428;7093
1430;7096
1426;7098
1434;7100
1442;7103
1443;7105
1430;7108
1422;7110
1425;7112
1440;7115
1464;7117
1466;7120
1479;7122
1540;7124
1564;7128
1543;7130
1503;7133
1485;7135
1488;7138
1472;7140
1454;7142
1474;7145
1497;7147
1485;7150
1453;7152
1429;7154
1442;7157
1464;7159
1461;7162
1439;7164
1417;7166
1414;7170
1423;7172
1437;7175
1443;7177
1457;7179
1487;7182
1485;7184
1465;7187
1452;7189
1453;7191
1478;7194
1490;7196
1484;7199
1466;7201
1449;7204
1468;7206
1495;7208
1494;7212
1468;7214
1445;7217
1453;7219
1482;7221
1491;7224
1460;7226
1432;7229
1425;7231
1432;7233
1431;7236
1432;7238
1434;7241
1452;7243
1478;7245
1479;7248
1463;7250
1445;7254
1440;7256
1441;7258
1439;7261
1453;7263
1488;7266
1510;7268
1504;7270
1488;7273
1470;7275
1455;7278
1445;7280
1451;7283
1481;7285
1507;7287
1515;7290
1512;7292
1504;7296
1500;7298
1500;7300
1507;7303
1508;7305
1489;7308
1474;7310
1457;7312
1456;7315
1460;7317
1464;7320
1463;7322
1470;7324
1484;7327
1489;7329
1506;7332
1511;7334
1505;7336
1486;7340
1495;7342
1513;7345
1505;7347
1475;7350
1462;7352
1472;7354
1491;7357
1514;7359
1533;7362
1521;7364
1490;7366
1467;7369
1459;7371
1463;7374
1466;7376
1470;7378
1483;7382
1508;7384
1521;7387
1505;7389
1506;7391
1524;7394
1519;7396
1498;7399
1481;7401
1474;7403
1474;7406
1471;7408
1466;7411
1467;7413
1466;7415
1470;7418
1481;7420
1498;7424
1501;7426
1500;7429
1506;7431
1534;7433
1556;7436
1550;7438
1538;7441
1531;7443
1515;7445
1494;7448
1470;7450
1464;7453
1463;7455
1472;7457
1482;7460
1501;7462
1520;7465
1531;7468
1523;7470
1511;7473
1497;7475
1492;7478
1490;7480
1503;7482
1504;7485
1489;7487
1468;7490
1461;7492
1466;7494
1474;7497
1478;7499
1489;7502
1503;7504
1526;7507
1565;7510
1593;7512
1590;7515
1556;7517
1534;7520
1527;7522
1534;7524
1525;7527
1506;7529
1527;7532
1551;7534
1557;7536
1535;7539
1510;7541
1483;7544
1459;7546
1446;7548
1453;7552
1480;7554
1495;7557
1498;7559
1485;7562
1477;7564
1487;7566
1506;7569
1520;7571
1519;7574
1501;7576
1494;7578
1515;7581
1521;7583
1507;7586
1514;7588
1517;7590
1521;7593
1510;7596
1494;7599
1489;7601
1485;7603
1478;7606
1472;7608
1476;7611
1483;7613
1490;7615
1490;7618
1492;7620
1504;7623
1502;7625
1505;7628
1510;7630
1517;7632
1507;7635
1494;7638
1488;7641
1497;7643
1502;7645
1500;7648
1492;7650
1506;7653
1518;7655
1521;7657
1521;7660
1512;7662
1499;7665
1488;7667
1486;7669
1502;7672
1507;7674
1519;7677
1530;7680
1528;7682
1518;7685
1506;7687
1503;7690
1520;7692
1528;7694
1514;7697
1510;7699
1546;7702
1563;7704
1560;7707
1533;7709
1513;7711
1511;7714
1515;7716
1524;7719
1520;7721
1529;7724
1545;7727
1560;7729
1546;7732
1519;7734
1497;7736
1500;7739
1520;7741
1531;7744
1535;7746
1533;7748
1521;7751
1513;7753
1516;7756
1521;7758
1523;7760
1518;7763
1507;7766
1495;7769
1489;7771
1494;7774
1525;7776
1554;7778
1573;7781
1584;7783
1581;7786
1561;7788
1528;7790
1516;7793
1508;7795
1502;7798
1511;7800
1514;7802
1506;7805
1493;7808
1489;7811
1506;7813
1531;7815
1594;7818
1620;7820
1603;7823
1560;7825
1526;7827
1510;7830
1510;7832
1514;7835
1509;7837
1503;7840
1500;7842
1511;7844
1523;7847
1526;7849
1528;7853
1530;7855
1538;7857
1544;7860
1542;7862
1529;7865
1520;7867
1508;7869
1514;7872
1524;7874
1530;7877
1538;7879
1561;7881
1574;7884
1567;7886
1560;7889
1558;7891
1559;7894
1566;7897
1605;7899
1620;7902
1597;7904
1554;7907
1523;7909
1516;7911
1524;7914
1535;7916
1546;7919
1557;7921
1548;7923
1533;7926
1524;7928
1532;7931
1539;7933
1547;7936
1570;7939
1603;7941
1605;7944
1571;7946
1536;7948
1518;7951
1528;7953
1540;7956
1548;7958
1552;7960
1532;7963
1516;7965
1508;7968
1510;7970
1517;7973
1522;7975
1535;7977
1555;7981
1582;7983
1586;7986
1569;7988
1544;7990
1532;7993
1530;7995
1528;7998
1530;8000
1540;8002
1552;8005
1560;8007
1546;8010
1527;8012
1540;8014
1561;8017
1564;8019
1545;8023
1530;8025
1529;8027
1542;8030
1544;8032
1543;8035
1538;8037
1542;8039
1541;8042
1531;8044
1517;8047
1502;8049
1511;8051
1536;8054
1552;8056
1556;8059
1546;8061
1526;8065
1520;8067
1524;8069
1526;8072
1534;8074
1547;8077
1555;8079
1544;8081
1541;8084
1538;8086
1529;8089
1526;8091
1532;8093
1543;8096
1568;8098
1577;8101
1568;8103
1543;8105
1529;8109
1527;8111
1530;8114
1517;8116
1502;8118
1489;8121
1489;8123
1492;8126
1493;8128
1501;8130
1527;8133
1543;8135
1538;8138
1525;8140
1512;8143
1516;8145
1526;8147
1526;8151
1516;8153
1511;8156
1503;8158
1504;8160
1507;8163
1518;8165
1531;8168
1546;8170
1585;8172
1595;8175
1574;8177
1570;8180
1553;8182
1524;8184
1501;8187
1477;8189
1466;8193
1470;8195
1478;8197
1488;8200
1492;8202
1514;8205
1541;8207
1551;8209
1539;8212
1512;8214
1494;8217
1483;8219
1471;8222
1458;8224
1456;8226
1479;8229
1498;8231
1510;8235
1517;8237
1524;8239
1522;8242
1494;8244
1468;8247
1457;8249
1464;8251
1478;8254
1489;8256
1516;8259
1561;8261
1565;8263
1534;8266
1495;8268
1480;8271
1474;8273
1470;8275
1467;8279
1458;8281
1460;8284
1498;8286
1520;8288
1512;8291
1489;8293
1476;8296
1479;8298
1485;8301
1487;8303
1486;8305
1478;8308
1460;8310
1449;8313
1458;8315
1472;8317
1480;8321
1491;8323
1494;8326
1504;8328
1513;8330
1525;8333
1512;8335
1489;8338
1474;8340
1466;8342
1475;8345
1481;8347
1478;8350
1466;8352
1465;8354
1472;8357
1473;8359
1502;8363
1518;8365
1506;8367
1484;8370
1454;8372
1453;8375
1470;8377
1492;8380
1493;8382
1493;8384
1524;8387
1537;8389
1528;8392
1501;8394
1474;8396
1460;8399
1459;8401
1478;8404
1501;8407
1492;8409
1472;8412
1456;8414
1441;8417
1434;8419
1432;8421
1434;8424
1440;8426
1462;8429
1474;8431
1478;8433
1482;8436
1495;8438
1509;8441
1504;8443
1503;8445
1533;8449
1540;8451
1524;8454
1491;8456
1467;8458
1454;8461
1442;8463
1437;8466
1436;8468
1434;8471
1438;8473
1441;8475
1443;8478
1453;8480
1474;8483
1499;8485
1519;8487
1514;8491
1494;8493
1476;8496
1460;8498
1455;8500
1449;8503
1442;8505
1436;8508
1460;8510
1485;8512
1497;8515
1480;8517
1463;8520
1455;8522
1453;8524
1491;8527
1560;8529
1585;8532
1564;8535
1520;8537
1484;8540
1457;8542
1436;8545
1423;8547
1414;8550
1424;8552
1447;8554
1463;8557
1468;8559
1466;8562
1472;8564
1470;8566
1470;8569
1483;8571
1491;8574
1494;8577
1479;8579
1464;8582
1458;8584
1451;8587
1446;8589
1444;8591
1453;8594
1469;8596
1497;8599
1502;8601
1502;8603
1506;8606
1501;8608
1482;8611
1465;8613
1455;8615
1455;8619
1461;8621
1467;8624
1466;8626
1457;8629
1443;8631
1440;8633
1454;8636
1471;8638
1478;8641
1479;8643
1481;8645
1472;8648
1462;8650
1465;8653
1471;8655
1472;8657
1465;8660
1454;8663
1446;8666
1448;8668
1471;8670
1486;8673
1484;8675
1473;8678
1480;8680
1493;8682
1499;8685
1500;8687
1488;8690
1481;8692
1485;8694
1488;8697
1488;8699
1479;8702
1469;8705
1462;8708
1461;8710
1462;8712
1471;8715
1482;8717
1501;8720
1503;8722
1494;8724
1491;8727
1488;8729
1491;8732
1493;8734
1489;8736
1480;8739
1472;8741
1465;8744
1461;8747
1466;8749
1479;8752
1500;8754
1524;8757
1542;8759
1548;8761
1529;8764
1500;8766
1481;8769
1474;8771
1470;8774
1475;8776
1488;8778
1498;8781
1508;8783
1511;8786
1516;8788
1513;8791
1503;8794
1489;8796
1480;8799
1476;8801
1480;8803
1481;8806
1478;8808
1484;8811
1493;8813
1508;8815
1513;8818
1502;8820
1479;8823
1457;8825
1451;8827
1458;8830
1477;8833
1505;8836
1515;8838
1514;8840
1500;8843
1488;8845
1482;8848
1477;8850
1478;8853
1482;8855
1493;8857
1495;8860
1494;8862
1486;8865
1485;8867
1491;8869
1494;8872
1498;8875
1490;8878
1486;8880
1487;8882
1483;8885
1487;8887
1503;8890
1512;8892
1525;8894
1542;8897
1559;8899
1549;8902
1514;8904
1490;8906
1479;8909
1477;8911
1490;8914
1497;8916
1515;8920
1551;8922
1574;8924
1570;8927
1539;8929
1513;8932
1498;8934
1490;8936
1484;8939
1485;8941
1487;8944
1489;8946
1490;8948
1488;8951
1486;8953
1479;8956
1475;8958
1486;8961
1494;8964
1496;8966
1495;8969
1492;8971
1506;8973
1556;8976
1574;8978
1553;8981
1521;8983
1522;8985
1533;8988
1530;8990
1524;8993
1514;8995
1504;8998
1494;9000
1493;9003
1512;9006
1531;9008
1536;9011
1532;9013
1519;9015
1502;9018
1488;9020
1478;9023
1473;9025
1476;9027
1488;9030
1500;9032
1512;9035
1509;9037
1492;9039
1480;9042
1472;9044
1469;9048
1481;9050
1495;9052
1505;9055
1509;9057
1505;9060
1493;9062
1485;9064
1501;9067
1540;9069
1565;9072
1561;9074
1535;9077
1526;9079
1519;9081
1508;9084
1509;9086
1507;9090
1500;9092
1518;9094
1547;9097
1553;9099
1545;9102
1530;9104
1513;9106
1496;9109
1474;9111
1470;9114
1481;9116
1490;9118
1495;9121
1493;9123
1494;9126
1498;9128
1509;9131
1530;9134
1523;9136
1506;9139
1510;9141
1509;9144
1498;9146
1491;9148
1485;9151
1487;9153
1491;9156
1502;9158
1513;9160
1513;9163
1499;9165
1499;9168
1515;9170
1538;9172
1548;9176
1530;9178
1516;9181
1508;9183
1498;9185
1494;9188
1500;9190
1521;9193
1535;9195
1539;9197
1529;9200
1512;9202
1501;9205
1506;9207
1520;9210
1549;9212
1554;9214
1547;9218
1527;9220
1505;9223
1491;9225
1484;9227
1481;9230
1498;9232
1529;9235
1545;9237
1537;9239
1524;9242
1502;9244
1486;9247
1480;9249
1487;9251
1521;9254
1550;9256
1587;9260
1584;9262
1568;9264
1536;9267
1504;9269
1483;9272
1471;9274
1470;9276
1479;9279
1487;9281
1483;9284
1468;9286
1461;9289
1459;9291
1473;9293
1496;9296
1508;9298
1502;9302
1490;9304
1483;9306
1502;9309
1529;9311
1549;9314
1550;9316
1539;9318
1530;9321
1517;9323
1499;9326
1486;9328
1481;9330
1500;9333
1523;9335
1530;9338
1512;9340
1487;9342
1475;9346
1474;9348
1485;9351
1500;9353
1504;9356
1510;9358
1518;9360
1515;9363
1497;9365
1482;9368
1481;9370
1511;9372
1535;9375
1538;9377
1529;9380
1505;9382
1495;9384
1499;9388
1500;9390
1495;9393
1494;9395
1514;9397
1539;9400
1544;9402
1528;9405
1502;9407
1487;9409
1484;9412
1498;9414
1518;9417
1528;9419
1526;9422
1507;9424
1495;9426
1489;9430
1483;9432
1486;9435
1491;9437
1510;9439
1539;9442
1546;9444
1536;9447
1521;9449
1503;9451
1494;9454
1487;9456
1484;9459
1480;9461
1473;9463
1465;9466
1460;9468
1461;9472
1468;9474
1486;9476
1500;9479
1504;9481
1502;9484
1498;9486
1503;9489
1511;9491
1515;9493
1506;9496
1495;9498
1496;9501
1500;9503
1511;9505
1526;9508
1525;9510
1524;9513
1519;9516
1513;9518
1504;9521
1492;9523
1484;9526
1491;9528
1508;9530
1535;9533
1559;9535
1573;9538
1571;9540
1558;9542
1530;9545
1511;9547
1502;9550
1502;9552
1509;9555
1513;9558
1512;9560
1509;9563
1504;9565
1500;9568
1496;9570
1500;9572
1518;9575
1545;9577
1563;9580
1565;9582
1542;9584
1520;9587
1506;9589
1496;9592
1497;9594
1497;9596
1496;9600
1496;9602
1493;9605
1493;9607
1497;9609
1500;9612
1513;9614
1536;9617
1552;9619
1556;9622
1558;9624
1569;9626
1567;9629
1542;9631
1523;9634
1519;9636
1520;9638
1520;9641
1513;9644
1503;9647
1495;9649
1500;9651
1511;9654
1522;9656
1525;9659
1527;9661
1518;9663
1505;9666
1499;9668
1496;9671
1507;9673
1519;9675
1539;9678
1560;9680
1573;9683
1558;9686
1539;9688
1532;9691
1542;9693
1549;9696
1555;9698
1554;9701
1542;9703
1526;9705
1520;9708
1516;9710
1514;9713
1513;9715
1505;9717
1497;9720
1507;9722
1522;9725
1525;9728
1513;9730
1499;9733
1500;9735
1509;9738
1512;9740
1505;9742
1492;9745
1490;9747
1486;9750
1485;9752
1489;9754
1495;9757
1498;9759
1497;9762
1502;9764
1509;9767
1508;9769
1502;9772
1505;9775
1515;9777
1519;9780
1512;9782
1494;9784
1484;9787
1477;9789
1473;9792
1477;9794
1479;9796
1479;9799
1481;9801
1481;9804
1478;9806
1481;9808
1481;9811
1485;9814
1493;9817
1506;9819
1509;9821
1500;9824
1508;9826
1513;9829
1514;9831
1522;9833
1526;9836
1522;9838
1506;9841
1495;9843
1482;9846
1476;9848
1470;9850
1466;9853
1467;9856
1474;9859
1494;9861
1504;9863
1500;9866
1489;9868
1473;9871
1469;9873
1473;9875
1478;9878
1484;9880
1486;9883
1481;9885
1477;9887
1478;9890
1495;9892
1517;9895
1522;9897
1510;9900
1498;9903
1488;9905
1484;9908
1489;9910
1492;9912
1492;9915
1490;9917
1500;9920
1523;9922
1527;9925
1513;9927
1497;9929
1495;9932
1506;9934
1522;9937
1531;9939
1546;9942
1556;9945
1542;9947
1520;9950
1506;9952
1500;9954
1498;9957
1496;9959
1496;9962
1492;9964
1486;9966
1484;9969
1489;9971
1515;9974
1543;9976
1557;9979
1553;9981
1533;9984
1511;9987
1521;9989
1535;9992
1548;9994
1567;9996
1571;9999
1559;10001
1540;10004
1519;10006
1504;10009
1493;10011
1488;10013
1484;10016
1484;10018
1491;10021
1498;10023
1514;10027
1538;10029
1558;10032
1571;10034
1572;10037
1560;10039
1544;10041
1527;10044
1508;10046
1493;10049
1495;10051
1521;10054
1555;10056
1568;10059
1562;10061
1571;10064
1580;10066
1582;10070
1574;10072
1563;10074
1553;10077
1542;10079
1532;10082
1520;10084
1513;10087
1513;10089
1518;10092
1527;10094
1538;10097
1543;10099
1539;10101
1529;10104
1521;10106
1521;10109
1532;10112
1562;10115
1573;10117
1576;10120
1586;10122
1588;10125
1573;10127
1552;10129
1538;10132
1530;10134
1525;10137
1518;10139
1510;10142
1504;10144
1502;10147
1502;10149
1504;10152
1512;10155
1522;10157
1530;10160
1534;10162
1531;10165
1529;10167
1534;10170
1540;10172
1539;10175
1526;10177
1518;10180
1518;10182
1527;10185
1533;10187
1530;10189
1528;10192
1530;10194
1543;10198
1565;10200
1566;10203
1553;10205
1527;10208
1513;10210
1503;10213
1500;10215
1502;10217
1515;10220
1518;10222
1510;10225
1503;10227
1497;10230
1502;10232
1510;10235
1510;10237
1502;10241
1494;10243
1489;10245
1489;10248
1494;10250
1491;10253
1494;10255
1499;10258
1502;10260
1501;10263
1490;10265
1481;10268
1478;10270
1487;10273
1505;10275
1517;10277
1509;10280
1499;10283
1493;10286
1501;10288
1514;10291
1530;10293
1527;10296
1514;10298
1503;10301
1496;10303
1483;10305
1471;10308
1471;10310
1478;10313
1479;10315
1471;10318
1472;10320
1478;10323
1483;10326
1478;10329
1469;10331
1463;10333
1467;10336
1473;10338
1479;10341
1473;10343
1463;10346
1460;10348
1466;10351
1487;10353
1504;10356
1507;10358
1500;10360
1495;10363
1495;10365
1492;10369
1487;10371
1482;10374
1475;10376
1467;10379
1472;10381
1469;10384
1454;10386
1432;10389
1417;10391
1417;10393
1421;10396
1426;10398
1430;10401
1430;10403
1425;10406
1424;10408
1423;10412
1427;10414
1435;10417
1443;10419
1461;10421
1472;10424
1464;10426
1453;10429
1441;10431
1431;10434
1426;10436
1422;10439
1423;10441
1426;10444
1428;10446
1426;10448
1430;10451
1451;10454
1461;10457
1455;10459
1441;10462
1427;10464
1419;10467
1414;10469
1412;10472
1416;10474
1420;10476
1420;10479
1417;10481
1426;10484
1444;10486
1449;10489
1450;10491
1455;10494
1444;10497
1433;10500
1424;10502
1416;10505
1409;10507
1408;10509
1408;10512
1407;10514
1405;10517
1403;10519
1403;10522
1407;10524
1408;10527
1410;10529
1408;10532
1405;10534
1402;10536
1408;10540
1433;10542
1455;10545
1448;10547
1424;10550
1405;10552
1411;10555
1423;10557
1433;10560
1437;10562
1435;10564
1424;10567
1405;10569
1392;10572
1394;10574
1403;10577
1408;10579
1408;10583
1406;10585
1407;10588
1407;10590
1414;10592
1421;10595
1422;10597
1424;10600
1422;10602
1408;10605
1393;10607
1386;10610
1386;10612
1390;10615
1393;10617
1394;10620
1399;10622
1396;10625
1393;10628
1389;10630
1393;10633
1414;10635
1433;10638
1435;10640
1430;10643
1440;10645
1453;10648
1449;10650
1433;10652
1413;10655
1401;10657
1394;10660
1392;10662
1390;10665
1390;10668
1397;10671
1400;10673
1408;10676
1420;10678
1437;10680
1435;10683
1422;10685
1405;10688
1396;10690
1395;10693
1398;10695
1399;10698
1397;10700
1395;10703
1392;10705
1400;10708
1418;10711
1441;10713
1452;10716
1444;10718
1429;10721
1422;10723
1419;10726
1429;10728
1437;10731
1442;10733
1443;10736
1438;10738
1432;10740
1419;10743
1403;10745
1394;10748
1392;10750
1396;10754
1409;10756
1433;10759
1449;10761
1445;10764
1429;10766
1412;10768
1404;10771
1406;10773
1414;10776
1427;10778
1439;10781
1445;10783
1437;10786
1422;10788
1417;10791
1425;10793
1438;10796
1444;10799
1449;10801
1457;10804
1459;10806
1455;10809
1443;10811
1446;10814
1456;10816
1464;10819
1468;10821
1463;10824
1449;10826
1439;10828
1452;10831
1477;10833
1486;10836
1468;10839
1449;10842
1436;10844
1425;10847
1420;10849
1422;10852
1435;10854
1445;10856
1443;10859
1441;10861
1441;10864
1447;10866
1466;10869
1480;10871
1483;10874
1482;10876
1482;10880
1496;10882
1502;10884
1496;10887
1482;10889
1472;10892
1469;10894
1465;10897
1459;10899
1458;10902
1458;10904
1472;10907
1488;10909
1494;10912
1484;10914
1470;10916
1462;10919
1456;10921
1454;10925
1457;10927
1464;10930
1468;10932
1472;10935
1473;10937
1474;10940
1475;10942
1469;10944
1465;10947
1469;10949
1485;10952
1504;10954
1514;10957
1517;10959
1512;10962
1502;10964
1483;10968
1476;10970
1489;10972
1503;10975
1511;10977
1502;10980
1489;10982
1476;10985
1468;10987
1465;10990
1460;10992
1463;10995
1468;10997
1478;10999
1483;11002
1481;11004
1472;11008
1464;11010
1451;11013
1446;11015
1449;11018
1467;11020
1485;11023
1482;11025
1466;11028
1463;11030
1472;11032
1473;11035
1461;11037
1452;11040
1447;11042
1447;11045
1448;11047
1447;11051
1453;11053
1460;11056
1466;11058
1466;11060
1464;11063
1456;11065
1447;11068
1444;11070
1434;11073
1436;11075
1447;11078
1460;11080
1472;11083
1474;11085
1466;11087
1452;11090
1434;11092
1433;11096
1439;11098
1441;11101
1436;11103
1441;11106
1445;11108
1446;11111
1449;11113
1455;11116
1459;11118
1468;11120
1471;11123
1459;11125
1447;11128
1435;11130
1431;11133
1435;11136
1437;11139
1442;11141
1449;11144
1449;11146
1447;11148
1443;11151
1442;11153
1447;11156
1456;11158
1467;11161
1478;11163
1483;11166
1479;11168
1463;11171
1442;11173
1437;11175
1435;11179
1440;11181
1439;11184
1432;11186
1430;11189
1434;11191
1443;11194
1448;11196
1447;11199
1448;11201
1445;11203
1440;11206
1435;11208
1433;11211
1444;11213
1459;11216
1467;11218
1465;11222
1461;11224
1453;11227
1446;11229
1441;11232
1436;11234
1441;11236
1456;11239
1467;11241
1471;11244
1464;11246
1462;11249
1457;11251
1451;11254
1445;11256
1437;11259
1435;11261
1436;11264
1438;11267
1448;11269
1460;11272
1476;11274
1483;11277
1483;11279
1483;11282
1485;11284
1485;11287
1485;11289
1485;11291
1489;11294
1495;11296
1488;11299
1479;11301
1467;11304
1455;11307
1449;11310
1445;11312
1447;11315
1457;11317
1476;11320
1490;11322
1488;11324
1475;11327
1465;11329
1460;11332
1462;11334
1469;11337
1473;11339
1477;11342
1483;11344
1478;11347
1474;11350
1469;11352
1469;11355
1464;11357
1460;11360
1458;11362
1457;11365
1454;11367
1454;11370
1453;11372
1453;11375
1456;11377
1457;11379
1455;11382
1447;11384
1446;11387
1455;11389
1463;11393
1471;11395
1476;11398
1479;11400
1474;11403
1467;11405
1456;11408
1450;11410
1450;11412
1459;11415
1469;11417
1476;11420
1476;11422
1465;11425
1451;11427
1445;11430
1454;11432
1474;11436
1484;11438
1481;11440
1482;11443
1483;11445
1478;11448
1464;11450
1454;11453
1454;11455
1456;11458
1458;11460
1460;11463
1459;11465
1456;11467
1449;11470
1447;11472
1449;11475
1447;11478
1447;11481
1448;11483
1449;11486
1462;11488
1476;11491
1488;11493
1491;11496
1489;11498
1485;11500
1486;11503
1481;11505
1472;11508
1464;11510
1465;11513
1467;11515
1466;11518
1468;11521
1466;11524
1462;11526
1459;11528
1460;11531
1461;11533
1484;11536
1500;11538
1495;11541
1481;11543
1463;11546
1450;11548
1443;11551
1443;11553
1447;11555
1450;11558
1455;11560
1457;11564
1462;11566
1467;11569
1472;11571
1482;11574
1496;11576
1503;11579
1493;11581
1474;11583
1452;11586
1441;11588
1442;11591
1455;11593
1475;11596
1486;11598
1501;11601
1507;11603
1502;11607
1489;11609
1480;11612
1480;11614
1494;11616
1507;11619
1510;11621
1510;11624
1497;11626
1482;11629
1475;11631
1472;11634
1482;11636
1504;11639
1519;11641
1522;11643
1507;11646
1489;11649
1476;11652
1468;11654
1463;11657
1460;11659
1460;11662
1459;11664
1460;11667
1467;11669
1470;11671
1479;11674
1483;11676
1478;11679
1470;11681
1456;11684
1447;11686
1453;11689
1462;11692
1465;11695
1465;11697
1465;11700
1468;11702
1466;11704
1459;11707
1459;11709
1462;11712
1476;11714
1492;11717
1494;11719
1493;11722
1498;11724
1497;11727
1494;11729
1480;11731
1470;11735
1465;11737
1460;11740
1456;11742
1449;11745
1443;11747
1441;11750
1442;11752
1450;11755
1463;11757
1471;11759
1476;11762
1476;11764
1475;11767
1474;11769
1468;11772
1467;11774
1474;11778
1486;11780
1502;11783
1514;11785
1517;11788
1515;11790
1508;11792
1503;11795
1486;11797
1466;11800
1451;11802
1435;11805
1425;11807
1430;11810
1443;11812
1455;11815
1464;11817
1469;11820
1474;11823
1472;11825
1468;11828
1469;11830
1489;11833
1501;11835
1498;11838
1484;11840
1465;11843
1450;11845
1441;11847
1432;11850
1428;11852
1435;11855
1456;11857
1470;11860
1473;11863
1471;11866
1473;11868
1471;11871
1464;11873
1461;11876
1463;11878
1474;11880
1485;11883
1493;11885
1487;11888
1475;11890
1460;11893
1445;11895
1437;11898
1438;11900
1443;11904
1447;11906
1456;11908
1463;11911
1465;11913
1489;11916
1521;11918
1542;11921
1537;11923
1509;11926
1477;11928
1462;11931
1461;11933
1496;11935
1535;11938
1563;11940
1577;11943
1578;11945
1559;11949
1517;11951
1487;11954
1479;11956
1479;11959
1485;11961
1503;11963
1507;11966
1493;11968
1464;11971
1431;11973
1418;11976
1413;11978
1410;11981
1407;11983
1402;11986
1398;11988
1397;11992
1400;11994
1406;11996
1406;11999
1406;12001
1405;12004
1404;12006
1405;12009
1406;12011
1413;12014
1423;12016
1434;12019
1463;12021
1493;12023
1503;12026
1483;12028
1450;12032
1429;12034
1420;12037
1416;12039
1414;12042
1411;12044
1410;12047
1412;12049
1409;12051
1405;12054
1410;12056
1416;12059
1420;12061
1421;12064
1418;12066
1413;12069
1407;12071
1408;12075
1414;12077
1421;12080
1428;12082
1429;12084
1437;12087
1448;12089
1457;12092
1471;12094
1484;12097
1486;12099
1474;12102
1454;12104
1437;12107
1429;12109
1429;12111
1431;12114
1438;12116
1435;12120
1436;12122
1436;12125
1431;12127
1428;12130
1427;12132
1439;12135
1456;12137
1482;12139
1500;12142
1505;12144
1485;12147
1460;12149
1439;12152
1432;12154
1433;12157
1434;12160
1435;12163
1434;12165
1431;12168
1429;12170
1428;12172
1434;12175
1444;12177
1448;12180
1449;12182
1450;12185
1454;12187
1469;12190
1475;12192
1469;12195
1459;12197
1453;12199
1453;12203
1451;12205
1448;12208
1448;12210
1452;12213
1470;12215
1481;12218
1486;12220
1479;12223
1478;12225
1476;12227
1473;12230
1464;12232
1457;12235
1457;12237
1460;12240
1460;12242
1458;12246
1453;12248
1446;12251
1447;12253
1460;12256
1484;12258
1491;12260
1486;12263
1476;12265
1466;12268
1459;12270
1454;12273
1455;12275
1456;12278
1455;12280
1453;12283
1453;12285
1452;12288
1454;12291
1452;12293
1466;12296
1479;12298
1486;12301
1486;12303
1476;12306
1466;12308
1460;12311
1459;12313
1468;12315
1475;12318
1481;12320
1480;12323
1467;12325
1455;12328
1446;12331
1447;12334
1454;12336
1469;12339
1475;12341
1476;12343
1463;12346
1453;12348
1449;12351
1445;12353
1449;12356
1450;12358
1450;12361
1453;12363
1459;12366
1456;12368
1447;12371
1442;12374
1445;12376
1447;12379
1447;12381
1445;12384
1445;12386
1453;12389
1460;12391
1461;12394
1461;12396
1460;12399
1464;12401
1469;12403
1463;12406
1448;12408
1435;12411
1429;12413
1435;12417
1449;12419
1458;12422
1449;12424
1433;12427
1424;12429
1420;12431
1423;12434
1435;12436
1453;12439
1456;12441
1442;12444
1422;12446
1409;12449
1406;12451
1410;12454
1421;12456
1435;12460
1446;12462
1446;12464
1440;12467
1451;12469
1458;12472
1454;12474
1447;12477
1437;12479
1439;12482
1445;12484
1446;12487
1443;12489
1442;12491
1445;12494
1449;12496
1446;12499
1446;12502
1470;12505
1499;12507
1501;12510
1480;12512
1477;12515
1486;12517
1489;12519
1469;12522
1444;12524
1424;12527
1412;12529
1401;12532
1400;12534
1410;12537
1415;12539
1421;12542
1428;12545
1440;12547
1450;12550
1454;12552
1452;12555
1454;12557
1448;12560
1447;12562
1444;12565
1433;12567
1424;12570
1420;12572
1427;12575
1435;12577
1435;12579
1443;12582
1447;12584
1456;12588
1473;12590
1474;12593
1470;12595
1463;12598
1457;12600
1463;12603
1463;12605
1450;12607
1434;12610
1423;12612
1428;12615
1436;12617
1436;12620
1437;12622
1437;12625
1438;12627
1441;12631
1447;12633
1461;12635
1476;12638
1484;12640
1486;12643
1477;12645
1473;12648
1470;12650
1471;12653
1473;12655
1473;12658
1470;12660
1470;12663
1477;12665
1478;12667
1475;12670
1478;12673
1488;12676
1490;12678
1479;12681
1468;12683
1461;12686
1464;12688
1481;12691
1501;12693
1533;12695
1556;12698
1547;12700
1520;12703
1496;12705
1480;12708
1470;12710
1466;12713
1469;12716
1474;12719
1481;12721
1495;12723
1505;12726
1513;12728
1512;12731
1504;12733
1500;12736
1499;12738
1495;12741
1488;12743
1489;12746
1506;12748
1516;12751
1514;12753
1507;12755
1517;12759
1525;12761
1526;12764
1520;12766
1513;12769
1509;12771
1511;12774
1520;12776
1538;12779
1557;12781
1564;12783
1551;12786
1532;12788
1513;12791
1503;12793
1505;12796
1507;12798
1509;12802
1511;12804
1508;12807
1506;12809
1501;12811
1500;12814
1506;12816
1509;12819
1514;12821
1519;12824
1523;12826
1523;12829
1521;12831
1521;12834
1529;12836
1555;12838
1573;12841
1574;12844
1557;12847
1542;12849
1533;12852
1533;12854
1535;12857
1537;12859
1540;12862
1541;12864
1545;12867
1551;12869
1547;12871
1534;12874
1526;12876
1524;12879
1525;12881
1526;12884
1518;12887
1510;12890
1505;12892
1504;12895
1512;12897
1518;12899
1525;12902
1527;12904
1527;12907
1531;12909
1530;12912
1529;12914
1529;12917
1529;12919
1543;12922
1553;12924
1548;12926
1525;12930
1506;12932
1501;12935
1510;12937
1522;12940
1532;12942
1531;12945
1524;12947
1522;12950
1527;12952
1559;12955
1584;12957
1578;12959
1561;12962
1554;12964
1549;12967
1542;12969
1527;12973
1524;12975
1539;12978
1546;12980
1540;12983
1528;12985
1516;12987
1516;12990
1515;12992
1518;12995
1526;12997
1529;13000
1526;13002
1523;13005
1529;13007
1536;13010
1539;13012
1537;13015
1538;13018
1534;13020
1532;13023
1537;13025
1544;13028
1543;13030
1535;13033
1535;13035
1542;13038
1543;13040
1548;13042
1545;13045
1535;13047
1527;13050
1527;13052
1541;13056
1567;13058
1600;13061
1613;13063
1596;13066
1564;13068
1530;13071
1510;13073
1508;13075
1508;13078
1509;13080
1509;13083
1500;13085
1499;13088
1503;13090
1507;13093
1516;13095
1524;13099
1531;13101
1539;13103
1542;13106
1536;13108
1528;13111
1523;13113
1528;13116
1538;13118
1539;13121
1540;13123
1546;13126
1544;13128
1538;13130
1522;13133
1544;13135
1583;13138
1590;13140
1562;13144
1531;13146
1513;13149
1509;13151
1505;13154
1512;13156
1522;13159
1525;13161
1528;13163
1530;13166
1520;13168
1505;13171
1502;13173
1510;13176
1517;13178
1513;13181
1516;13184
1536;13187
1535;13189
1514;13191
1494;13194
1486;13196
1496;13199
1516;13201
1530;13204
1536;13206
1544;13209
1550;13211
1549;13214
1541;13216
1531;13218
1524;13221
1505;13223
1489;13227
1481;13229
1473;13232
1472;13234
1477;13237
1476;13239
1480;13242
1490;13244
1508;13246
1509;13249
1501;13251
1491;13254
1500;13256
1513;13259
1524;13261
1529;13264
1517;13266
1502;13270
1490;13272
1481;13275
1489;13277
1490;13279
1486;13282
1491;13284
1506;13287
1525;13289
1526;13292
1517;13294
1508;13297
1500;13299
1499;13302
1513;13304
1520;13306
1512;13309
1497;13312
1492;13315
1500;13317
1504;13320
1514;13322
1521;13325
1516;13327
1509;13330
1506;13332
1508;13334
1519;13337
1527;13339
1533;13342
1533;13344
1517;13347
1504;13349
1512;13352
1518;13355
1523;13358
1515;13360
1502;13363
1492;13365
1482;13367
1490;13370
1515;13372
1534;13375
1537;13377
1542;13380
1548;13382
1540;13385
1520;13387
1502;13390
1492;13392
1491;13394
1494;13398
1495;13400
1491;13403
1489;13405
1484;13408
1484;13410
1493;13413
1496;13415
1497;13418
1503;13420
1516;13422
1522;13425
1536;13427
1546;13430
1545;13432
1531;13435
1518;13437
1517;13441
1529;13443
1538;13446
1525;13448
1505;13451
1487;13453
1483;13455
1488;13458
1492;13460
1495;13463
1496;13465
1506;13468
1518;13470
1519;13473
1511;13475
1509;13478
1510;13480
1516;13483
1502;13486
1488;13488
1482;13491
1481;13493
1483;13496
1493;13498
1509;13501
1518;13503
1517;13506
1509;13508
1510;13510
1505;13513
1497;13515
1502;13518
1516;13520
1538;13523
1527;13526
1512;13529
1503;13531
1497;13534
1495;13536
1494;13538
1493;13541
1495;13543
1489;13546
1482;13548
1494;13551
1515;13553
1525;13556
1509;13558
1486;13561
1482;13563
1482;13566
1471;13569
1465;13571
1469;13574
1474;13576
1470;13579
1460;13581
1456;13584
1461;13586
1468;13589
1471;13591
1472;13594
1475;13596
1480;13598
1485;13601
1492;13603
1481;13606
1463;13608
1449;13612
1442;13614
1448;13617
1455;13619
1463;13622
1473;13624
1480;13626
1482;13629
1475;13631
1471;13634
1476;13636
1490;13639
1501;13641
1504;13644
1495;13646
1495;13649
1496;13651
1488;13655
1488;13657
1484;13659
1481;13662
1466;13664
1454;13667
1457;13669
1465;13672
1476;13674
1491;13677
1500;13679
1507;13682
1500;13684
1481;13686
1466;13689
1448;13691
1440;13694
1446;13697
1467;13700
1497;13702
1509;13705
1497;13707
1473;13710
1456;13712
1444;13714
1438;13717
1437;13719
1434;13722
1437;13724
1448;13727
1451;13729
1454;13732
1459;13734
1468;13737
1473;13740
1471;13742
1470;13745
1469;13747
1469;13750
1483;13752
1512;13755
1526;13757
1506;13760
1476;13762
1456;13765
1439;13767
1425;13770
1416;13772
1418;13774
1426;13777
1433;13779
1441;13783
1444;13785
1444;13788
1443;13790
1441;13793
1440;13795
1445;13798
1462;13800
1492;13802
1499;13805
1482;13807
1462;13810
1454;13812
1460;13815
1474;13817
1498;13820
1507;13822
1488;13826
1465;13828
1459;13830
1463;13833
1466;13835
1469;13838
1467;13840
1470;13843
1471;13845
1466;13848
1459;13850
1449;13853
1447;13855
1454;13858
1457;13860
1456;13862
1452;13865
1446;13868
1451;13871
1460;13873
1483;13876
1502;13878
1505;13881
1503;13883
1494;13886
1481;13888
1473;13890
1465;13893
1470;13895
1489;13898
1507;13900
1521;13903
1524;13905
1515;13908
1503;13911
1490;13914
1485;13916
1486;13918
1496;13921
1509;13923
1503;13926
1489;13928
1479;13931
1485;13933
1497;13936
1503;13938
1502;13941
1497;13943
1486;13946
1473;13948
1467;13950
1465;13954
1468;13956
1472;13959
1473;13961
1472;13964
1470;13966
1466;13969
1467;13971
1475;13974
1491;13976
1509;13978
1523;13981
1538;13983
1537;13986
1522;13988
1501;13991
1489;13993
1505;13997
1515;13999
1503;14002
1484;14004
1472;14006
1474;14009
1477;14011
1478;14014
1481;14016
1479;14019
1479;14021
1480;14024
1481;14026
1481;14029
1482;14031
1486;14033
1487;14036
1496;14039
1511;14042
1517;14044
1507;14047
1493;14049
1489;14052
1498;14054
1511;14057
1523;14059
1531;14062
1530;14064
1516;14066
1507;14069
1517;14071
1518;14074
1518;14076
1505;14080
1495;14082
1491;14085
1489;14087
1486;14090
1486;14092
1491;14094
1512;14097
1530;14099
1525;14102
1506;14104
1483;14107
1470;14109
1461;14112
1459;14114
1469;14117
1477;14119
1487;14121
1497;14125
1505;14127
1513;14130
1510;14132
1507;14135
1514;14137
1516;14140
1518;14142
1507;14145
1497;14147
1494;14150
1498;14152
1507;14154
1515;14157
1518;14159
1517;14162
1512;14164
1502;14168
1494;14170
1487;14173
1484;14175
1488;14178
1490;14180
1492;14182
1490;14185
1484;14187
1481;14190
1483;14192
1489;14195
1496;14197
1497;14200
1499;14202
1499;14205
1492;14208
1491;14210
1490;14213
1494;14215
1503;14218
1510;14220
1519;14223
1529;14225
1534;14228
1541;14230
1546;14233
1547;14235
1541;14237
1530;14240
1520;14242
1507;14245
1492;14247
1486;14251
1498;14253
1518;14256
1533;14258
1529;14261
1519;14263
1514;14266
1517;14268
1521;14270
1523;14273
1517;14275
1520;14278
1525;14280
1528;14283
1523;14285
1513;14288
1503;14290
1495;14294
1497;14296
1505;14298
1510;14301
1512;14303
1509;14306
1500;14308
1494;14311
1500;14313
1519;14316
1530;14318
1530;14321
1525;14323
1524;14325
1525;14328
1526;14330
1523;14333
1530;14336
1538;14339
1539;14341
1538;14344
1538;14346
1541;14349
1534;14351
1517;14354
1504;14356
1505;14358
1513;14361
1521;14363
1517;14366
1512;14368
1509;14371
1519;14373
1529;14376
1532;14379
1531;14382
1533;14384
1534;14386
1524;14389
1511;14391
1503;14394
1509;14396
1521;14399
1525;14401
1522;14404
1512;14406
1503;14409
1502;14411
1507;14413
1517;14416
1524;14418
1526;14422
1521;14424
1505;14427
1490;14429
1481;14432
1478;14434
1489;14437
1502;14439
1514;14442
1521;14444
1514;14446
1502;14449
1484;14451
1475;14454
1482;14456
1494;14459
1500;14461
1500;14465
1494;14467
1500;14470
1508;14472
1509;14474
1504;14477
1504;14479
1504;14482
1499;14484
1484;14487
1466;14489
1453;14492
1456;14494
1471;14497
1491;14499
1514;14501
1528;14504
1521;14507
1506;14510
1490;14512
1479;14515
1475;14517
1470;14520
1470;14522
1471;14525
1467;14527
1463;14529
1461;14532
1467;14534
1481;14537
1491;14539
1490;14542
1488;14544
1480;14547
1473;14550
1471;14553
1475;14555
1481;14558
1484;14560
1490;14562
1497;14565
1494;14567
1487;14570
1475;14572
1473;14575
1475;14577
1471;14580
1467;14582
1471;14585
1473;14587
1475;14589
1477;14593
1478;14595
1482;14598
1480;14600
1475;14603
1471;14605
1462;14608
1459;14610
1458;14613
1459;14615
1462;14617
1468;14620
1475;14622
1478;14625
1478;14627
1488;14630
1498;14632
1515;14636
1522;14638
1520;14641
1513;14643
1500;14646
1490;14648
1477;14650
1462;14653
1454;14655
1453;14658
1454;14660
1460;14663
1463;14665
1466;14668
1473;14670
1476;14673
1469;14675
1463;14678
1453;14681
1445;14683
1440;14686
1438;14688
1437;14691
1437;14693
1440;14696
1448;14698
1455;14701
1462;14703
1462;14705
1463;14708
1470;14710
1475;14713
1488;14715
1499;14718
1493;14721
1485;14724
1469;14726
1451;14729
1442;14731
1438;14734
1443;14736
1455;14738
1459;14741
1459;14743
1449;14746
1439;14748
1436;14751
1440;14753
1446;14756
1458;14758
1465;14761
1469;14764
1459;14766
1448;14769
1441;14771
1443;14774
1452;14776
1459;14779
1459;14781
1452;14784
1437;14786
1423;14789
1423;14791
1424;14793
1425;14796
1427;14798
1443;14801
1470;14803
1482;14807
1474;14809
1461;14812
1448;14814
1447;14817
1447;14819
1440;14821
1429;14824
1420;14826
1416;14829
1415;14831
1422;14834
1437;14836
1446;14839
1445;14841
1444;14844
1443;14846
1444;14849
1442;14852
1433;14854
1431;14857
1430;14859
1431;14862
1450;14864
1465;14867
1460;14869
1452;14872
1451;14874
1469;14877
1475;14879
1465;14881
1456;14884
1451;14886
1443;14889
1432;14892
1420;14895
1422;14897
1430;14900
1437;14902
1449;14905
1454;14907
1449;14909
1435;14912
1424;14914
1422;14917
1422;14919
1425;14922
1427;14924
1429;14927
1433;14929
1435;14932
1435;14935
1438;14937
1439;14940
1440;14942
1442;14945
1443;14947
1449;14950
1461;14952
1469;14955
1474;14957
1473;14960
1471;14962
1473;14965
1472;14967
1474;14969
1470;14972
1463;14974
1458;14978
1454;14980
1459;14983
1471;14985
1501;14988
1515;14990
1513;14993
1500;14995
1488;14997
1486;15000
1477;15002
1468;15005
1453;15007
1450;15010
1453;15012
1460;15015
1469;15017
1475;15021
1480;15023
1480;15025
1478;15028
1480;15030
1479;15033
1484;15035
1495;15038
1504;15040
1510;15043
1514;15045
1511;15048
1511;15050
1516;15053
1518;15055
1511;15057
1502;15060
1494;15063
1499;15066
1507;15068
1511;15071
1509;15073
1500;15076
1495;15078
1494;15081
1500;15083
1506;15085
1504;15088
1501;15090
1499;15093
1500;15095
1512;15098
1519;15100
1525;15104
1521;15106
1516;15109
1516;15111
1513;15113
1514;15116
1515;15118
1521;15121
1523;15123
1518;15126
1510;15128
1506;15131
1505;15133
1508;15136
1514;15138
1517;15140
1519;15143
1519;15145
1515;15149
1510;15151
1507;15154
1509;15156
1521;15159
1543;15161
1559;15164
1553;15166
1533;15169
1515;15171
1508;15173
1510;15176
1515;15178
1518;15181
1521;15183
1522;15186
1519;15188
1521;15192
1515;15194
1511;15197
1513;15199
1513;15201
1509;15204
1505;15206
1498;15209
1494;15211
1490;15214
1487;15216
1491;15219
1496;15221
1512;15224
1525;15226
1527;15228
1515;15232
1504;15234
1501;15237
1501;15239
1509;15242
1518;15244
1524;15247
1520;15249
1513;15252
1501;15254
1500;15257
1502;15259
1502;15261
1503;15264
1500;15266
1493;15269
1487;15271
1485;15275
1489;15277
1495;15280
1496;15282
1496;15285
1492;15287
1488;15289
1485;15292
1480;15294
1480;15297
1482;15299
1489;15302
1494;15304
1493;15307
1489;15309
1486;15312
1482;15314
1484;15316
1498;15320
1513;15322
1520;15325
1513;15327
1500;15330
1491;15332
1488;15335
1490;15337
1493;15340
1494;15342
1494;15345
1489;15347
1483;15349
1480;15352
1480;15354
1495;15357
1512;15360
1519;15363
1514;15365
1501;15368
1490;15370
1482;15373
1477;15375
1476;15377
1478;15380
1478;15382
1475;15385
1470;15387
1464;15390
1461;15392
1462;15395
1467;15397
1470;15400
1471;15403
1475;15405
1478;15408
1476;15410
1467;15413
1461;15415
1461;15418
1462;15420
1463;15423
1461;15425
1458;15428
1457;15430
1457;15433
1457;15435
1459;15437
1461;15440
1461;15442
1458;15446
1452;15448
1448;15451
1445;15453
1445;15456
1451;15458
1453;15461
1456;15463
1458;15465
1457;15468
1455;15470
1451;15473
1450;15475
1452;15478
1453;15480
1454;15483
1453;15485
1449;15489
1445;15491
1444;15493
1448;15496
1459;15498
1467;15501
1469;15503
1464;15506
1456;15508
1450;15511
1445;15513
1446;15516
1450;15518
1452;15521
1454;15523
1456;15525
