mV;time
0;0
1526;2
1515;4
1505;7
1502;9
1502;11
1510;13
1514;16
1522;18
1526;20
1526;23
1514;25
1487;27
1467;30
1480;32
1492;34
1493;36
1490;39
1497;41
1519;44
1525;47
1510;49
1492;51
1488;54
1478;56
1490;58
1498;61
1495;63
1486;65
1478;67
1465;70
1461;72
1474;74
1496;77
1493;79
1489;81
1485;84
1473;87
1472;89
1475;91
1481;94
1484;96
1478;98
1473;101
1467;103
1462;105
1454;108
1437;110
1441;112
1455;115
1453;117
1469;120
1489;122
1463;124
1447;128
1438;130
1422;132
1429;135
1451;137
1463;139
1463;142
1453;144
1448;146
1444;149
1445;151
1437;153
1441;156
1441;158
1458;161
1459;163
1444;165
1429;168
1417;171
1403;173
1410;176
1443;178
1458;180
1464;183
1467;185
1461;187
1444;190
1445;192
1466;194
1464;197
1438;199
1432;202
1428;204
1407;206
1417;209
1436;211
1426;214
1427;217
1432;219
1439;221
1429;224
1420;226
1423;228
1423;231
1413;233
1421;235
1421;238
1412;240
1409;243
1420;245
1426;247
1428;250
1408;252
1411;254
1433;258
1427;260
1415;262
1412;265
1401;267
1406;269
1414;272
1413;274
1425;276
1431;279
1404;281
1413;284
1435;286
1431;288
1426;291
1432;293
1439;295
1431;299
1427;301
1422;303
1416;306
1400;308
1427;310
1442;313
1434;315
1429;318
1445;320
1453;322
1434;325
1425;327
1414;329
1423;332
1443;334
1432;336
1421;339
1425;342
1419;344
1420;347
1425;349
1420;351
1422;354
1422;356
1411;359
1415;361
1417;363
1416;366
1413;368
1411;370
1416;373
1419;375
1416;377
1419;380
1420;382
1431;385
1444;388
1443;390
1442;393
1427;395
1415;397
1402;400
1391;402
1399;404
1402;407
1408;409
1414;411
1418;414
1434;416
1443;418
1428;421
1420;423
1415;425
1414;429
1413;431
1408;434
1407;436
1394;438
1399;441
1400;443
1392;445
1387;448
1379;450
1384;452
1406;455
1414;457
1422;459
1420;462
1409;464
1410;466
1402;470
1388;472
1387;475
1390;477
1380;479
1401;482
1428;484
1424;486
1418;489
1403;491
1405;493
1410;496
1426;498
1422;500
1406;503
1389;505
1373;507
1365;510
1385;513
1413;516
1425;518
1420;520
1410;523
1405;525
1406;527
1408;530
1420;532
1418;534
1408;537
1408;539
1397;541
1373;544
1359;546
1363;549
1367;551
1379;553
1395;557
1402;559
1405;561
1409;564
1405;566
1388;568
1383;571
1393;573
1399;575
1400;578
1396;580
1398;582
1403;585
1387;587
1405;590
1429;592
1427;594
1397;598
1388;600
1391;602
1397;605
1400;607
1417;609
1425;612
1421;614
1400;616
1392;619
1386;621
1378;623
1366;626
1358;628
1359;631
1356;633
1392;635
1410;638
1402;641
1386;643
1376;646
1376;648
1367;650
1365;653
1365;655
1363;657
1366;660
1371;662
1382;665
1391;667
1383;669
1371;672
1392;674
1404;676
1403;679
1388;681
1375;684
1359;687
1352;689
1337;691
1346;694
1363;696
1375;698
1388;701
1391;703
1373;706
1360;708
1349;710
1340;713
1341;715
1343;717
1341;720
1349;722
1351;724
1347;728
1352;730
1363;732
1371;735
1378;737
1391;739
1402;742
1402;744
1388;747
1371;749
1358;751
1357;754
1369;756
1373;758
1389;761
1392;763
1382;765
1370;769
1373;771
1379;773
1378;776
1379;778
1386;781
1392;783
1387;785
1393;788
1396;790
1405;792
1414;795
1432;797
1449;799
1448;802
1440;804
1434;806
1410;809
1398;812
1401;814
1411;817
1420;819
1420;822
1416;824
1412;826
1411;829
1404;831
1411;833
1427;836
1452;838
1464;840
1460;843
1448;845
1442;847
1435;850
1426;852
1423;855
1433;858
1442;860
1445;863
1442;865
1438;867
1434;870
1427;872
1437;874
1439;877
1448;879
1464;881
1462;884
1457;886
1452;888
1438;891
1432;893
1427;897
1427;899
1431;901
1438;904
1441;906
1440;908
1443;911
1446;913
1455;915
1466;918
1458;920
1453;922
1449;925
1442;927
1437;929
1455;932
1478;934
1499;937
1489;940
1474;942
1460;945
1454;947
1454;949
1450;952
1444;954
1434;956
1431;959
1440;961
1453;963
1462;966
1475;968
1472;971
1472;973
1483;975
1505;978
1514;980
1484;983
1449;986
1437;988
1433;990
1442;993
1469;995
1496;997
1495;1000
1472;1002
1448;1005
1437;1007
1425;1009
1425;1012
1436;1014
1442;1017
1452;1019
1458;1021
1451;1025
1442;1027
1441;1030
1441;1032
1456;1034
1465;1037
1474;1039
1472;1042
1467;1044
1467;1046
1464;1049
1454;1051
1449;1054
1461;1056
1480;1058
1469;1061
1454;1063
1447;1067
1445;1069
1449;1071
1459;1074
1473;1076
1484;1079
1485;1081
1476;1083
1473;1086
1451;1088
1452;1091
1462;1093
1471;1096
1471;1098
1466;1100
1461;1103
1458;1105
1465;1108
1478;1111
1487;1113
1482;1116
1474;1118
1464;1121
1463;1123
1465;1125
1465;1128
1461;1130
1448;1133
1452;1135
1460;1137
1466;1140
1466;1142
1458;1145
1450;1147
1446;1149
1443;1153
1443;1155
1451;1158
1453;1160
1459;1162
1461;1165
1458;1167
1451;1170
1447;1172
1450;1174
1465;1177
1481;1179
1478;1182
1470;1184
1459;1186
1470;1189
1470;1191
1475;1195
1474;1197
1477;1200
1474;1202
1458;1204
1454;1207
1457;1209
1456;1212
1476;1214
1493;1216
1507;1219
1500;1221
1494;1224
1491;1226
1486;1228
1478;1231
1482;1233
1481;1236
1478;1239
1476;1241
1472;1244
1467;1246
1480;1249
1488;1251
1497;1253
1506;1256
1510;1258
1501;1261
1486;1263
1484;1265
1474;1268
1461;1270
1459;1273
1462;1275
1466;1277
1473;1281
1480;1283
1490;1286
1499;1288
1508;1291
1507;1293
1506;1295
1505;1298
1501;1300
1491;1303
1480;1305
1477;1307
1479;1310
1475;1312
1479;1315
1484;1317
1489;1319
1491;1323
1496;1325
1506;1328
1504;1330
1498;1332
1494;1335
1491;1337
1487;1340
1488;1342
1491;1344
1485;1347
1485;1349
1483;1352
1487;1354
1497;1356
1501;1359
1502;1361
1502;1364
1500;1367
1500;1369
1507;1372
1510;1374
1522;1377
1533;1379
1529;1381
1515;1384
1511;1386
1506;1389
1496;1391
1507;1394
1527;1396
1534;1398
1528;1401
1526;1403
1512;1406
1504;1409
1499;1411
1501;1414
1501;1416
1508;1419
1516;1421
1506;1423
1504;1426
1503;1428
1494;1431
1488;1433
1493;1435
1498;1438
1506;1440
1511;1443
1506;1445
1505;1447
1495;1451
1489;1453
1491;1456
1493;1458
1495;1460
1506;1463
1522;1465
1527;1468
1524;1470
1519;1472
1515;1475
1517;1477
1521;1480
1534;1482
1539;1484
1533;1487
1517;1489
1504;1492
1507;1495
1508;1498
1507;1500
1502;1502
1496;1505
1493;1507
1490;1510
1492;1512
1502;1514
1509;1517
1513;1519
1518;1522
1528;1524
1531;1526
1539;1529
1535;1531
1515;1534
1517;1537
1516;1539
1519;1542
1527;1544
1531;1547
1534;1549
1532;1551
1534;1554
1556;1556
1575;1559
1570;1561
1544;1563
1529;1566
1520;1568
1508;1571
1505;1573
1516;1576
1527;1579
1529;1581
1531;1584
1525;1586
1519;1589
1514;1591
1511;1593
1515;1596
1525;1598
1535;1601
1547;1603
1544;1605
1539;1608
1537;1610
1540;1613
1555;1615
1565;1617
1563;1620
1550;1623
1542;1626
1538;1628
1540;1630
1542;1633
1543;1635
1553;1638
1564;1640
1571;1642
1561;1645
1552;1647
1544;1650
1550;1652
1556;1655
1550;1657
1549;1659
1548;1662
1544;1665
1542;1668
1535;1670
1532;1672
1539;1675
1553;1677
1556;1680
1560;1682
1568;1684
1565;1687
1555;1689
1541;1692
1541;1694
1547;1696
1545;1699
1542;1701
1539;1704
1543;1707
1557;1709
1566;1712
1568;1714
1558;1717
1565;1719
1581;1721
1570;1724
1542;1726
1525;1729
1521;1731
1522;1733
1545;1736
1555;1738
1558;1741
1565;1743
1564;1745
1560;1748
1537;1751
1531;1754
1539;1756
1538;1759
1545;1761
1548;1763
1549;1766
1547;1768
1539;1771
1532;1773
1534;1775
1538;1778
1551;1780
1561;1783
1567;1785
1556;1787
1549;1790
1548;1793
1555;1796
1553;1798
1542;1800
1558;1803
1571;1805
1555;1808
1540;1810
1532;1812
1529;1815
1531;1817
1534;1820
1539;1822
1545;1824
1550;1827
1555;1829
1541;1832
1530;1835
1527;1837
1533;1840
1533;1842
1533;1845
1526;1847
1522;1849
1524;1852
1536;1854
1542;1857
1557;1859
1560;1862
1540;1864
1522;1866
1514;1869
1512;1871
1524;1874
1530;1876
1520;1879
1515;1882
1506;1884
1501;1887
1500;1889
1505;1891
1520;1894
1547;1896
1568;1899
1589;1901
1590;1903
1566;1906
1532;1908
1505;1911
1498;1913
1502;1915
1511;1918
1529;1921
1540;1924
1537;1926
1534;1928
1520;1931
1507;1933
1510;1936
1508;1938
1512;1941
1516;1943
1511;1945
1502;1948
1505;1950
1517;1953
1524;1955
1536;1957
1546;1960
1550;1963
1544;1966
1533;1968
1513;1970
1502;1973
1491;1975
1495;1978
1508;1980
1508;1982
1510;1985
1506;1987
1499;1990
1497;1992
1496;1994
1494;1997
1491;1999
1496;2002
1497;2004
1504;2007
1519;2010
1530;2012
1531;2015
1526;2017
1517;2020
1510;2022
1510;2024
1509;2027
1497;2029
1492;2032
1499;2034
1514;2036
1517;2039
1505;2041
1497;2044
1502;2046
1506;2049
1499;2052
1502;2054
1521;2057
1521;2059
1525;2061
1531;2064
1525;2066
1497;2069
1478;2071
1475;2073
1485;2076
1492;2078
1497;2081
1509;2083
1510;2085
1510;2088
1511;2091
1521;2094
1524;2096
1521;2099
1521;2101
1508;2103
1488;2106
1484;2108
1492;2111
1497;2113
1511;2115
1511;2118
1504;2120
1490;2123
1477;2125
1475;2127
1479;2130
1491;2132
1510;2136
1521;2138
1527;2140
1537;2143
1540;2145
1530;2148
1519;2150
1502;2152
1495;2155
1489;2157
1486;2160
1491;2162
1492;2164
1502;2167
1514;2169
1512;2172
1520;2174
1524;2177
1522;2180
1507;2182
1496;2185
1500;2187
1505;2190
1493;2192
1497;2194
1515;2197
1532;2199
1544;2202
1551;2204
1535;2206
1528;2209
1516;2211
1511;2214
1503;2216
1515;2219
1533;2222
1548;2224
1552;2227
1547;2229
1528;2231
1526;2234
1523;2236
1507;2239
1497;2241
1508;2243
1500;2246
1478;2248
1442;2251
1422;2253
1419;2255
1427;2258
1450;2260
1463;2264
1475;2266
1480;2269
1461;2271
1440;2273
1449;2276
1455;2278
1453;2281
1441;2283
1429;2285
1428;2288
1435;2290
1442;2293
1458;2295
1464;2297
1462;2300
1459;2302
1457;2306
1462;2308
1462;2310
1465;2313
1479;2315
1469;2318
1444;2320
1436;2322
1435;2325
1443;2327
1459;2330
1457;2332
1451;2334
1449;2337
1458;2339
1465;2342
1463;2344
1461;2348
1452;2350
1438;2352
1435;2355
1447;2357
1460;2360
1476;2362
1480;2364
1465;2367
1443;2369
1431;2372
1440;2374
1464;2376
1491;2379
1499;2381
1487;2384
1468;2386
1458;2388
1460;2392
1462;2394
1460;2397
1458;2399
1468;2401
1467;2404
1466;2406
1472;2409
1485;2411
1488;2413
1483;2416
1469;2418
1456;2421
1457;2423
1455;2425
1468;2428
1473;2430
1473;2434
1474;2436
1476;2439
1477;2441
1480;2443
1490;2446
1499;2448
1509;2451
1514;2453
1508;2455
1508;2458
1498;2460
1485;2463
1488;2465
1488;2467
1500;2470
1501;2472
1491;2476
1497;2478
1499;2480
1494;2483
1488;2485
1492;2488
1499;2490
1503;2492
1499;2495
1497;2497
1503;2500
1501;2502
1509;2504
1504;2507
1492;2509
1493;2512
1502;2514
1512;2516
1518;2520
1501;2522
1493;2525
1495;2527
1502;2530
1526;2532
1542;2534
1539;2537
1526;2539
1526;2542
1528;2544
1524;2546
1513;2549
1502;2551
1504;2554
1504;2556
1513;2558
1527;2562
1549;2564
1565;2567
1555;2569
1545;2571
1531;2574
1530;2576
1535;2579
1539;2581
1535;2583
1533;2586
1564;2588
1599;2591
1586;2593
1576;2595
1575;2598
1556;2600
1541;2604
1517;2606
1498;2609
1489;2611
1496;2613
1507;2616
1508;2618
1498;2621
1486;2623
1491;2625
1508;2628
1511;2630
1492;2633
1497;2635
1512;2637
1518;2640
1517;2642
1497;2646
1510;2648
1521;2650
1516;2653
1512;2655
1522;2658
1534;2660
1544;2662
1527;2665
1494;2667
1473;2670
1466;2672
1468;2674
1476;2677
1484;2679
1490;2682
1492;2684
1498;2686
1498;2690
1492;2692
1483;2695
1501;2697
1515;2699
1550;2702
1552;2704
1513;2707
1496;2709
1496;2712
1509;2714
1516;2716
1513;2719
1506;2721
1498;2724
1495;2726
1499;2728
1502;2732
1499;2734
1505;2737
1523;2739
1536;2741
1527;2744
1507;2746
1498;2749
1499;2751
1510;2753
1524;2756
1537;2758
1536;2761
1505;2763
1485;2765
1467;2768
1463;2770
1469;2774
1489;2776
1499;2778
1501;2781
1499;2783
1483;2786
1485;2788
1487;2791
1489;2793
1500;2795
1514;2798
1522;2800
1516;2803
1506;2805
1504;2807
1516;2810
1514;2812
1505;2816
1504;2818
1499;2820
1485;2823
1476;2825
1481;2828
1485;2830
1497;2832
1521;2835
1544;2837
1540;2840
1510;2842
1486;2844
1473;2847
1472;2849
1483;2852
1504;2854
1513;2856
1516;2860
1518;2862
1513;2865
1507;2867
1503;2869
1498;2872
1494;2874
1500;2877
1508;2879
1520;2882
1515;2884
1500;2886
1499;2889
1501;2891
1530;2894
1561;2896
1563;2898
1559;2902
1553;2904
1534;2907
1512;2909
1494;2911
1487;2914
1488;2916
1491;2919
1494;2921
1497;2923
1502;2926
1501;2928
1495;2931
1491;2933
1507;2935
1507;2938
1495;2940
1493;2944
1500;2946
1513;2948
1535;2951
1542;2953
1533;2956
1517;2958
1513;2961
1513;2963
1501;2965
1490;2968
1482;2970
1476;2973
1482;2975
1485;2977
1484;2980
1486;2982
1485;2985
1503;2988
1524;2990
1525;2993
1520;2995
1523;2998
1523;3000
1515;3002
1499;3005
1485;3007
1478;3010
1479;3012
1484;3014
1503;3017
1511;3019
1515;3022
1511;3024
1502;3026
1487;3030
1474;3032
1476;3035
1482;3037
1481;3040
1483;3042
1488;3044
1499;3047
1509;3049
1512;3052
1513;3054
1530;3056
1535;3059
1534;3061
1518;3064
1496;3066
1487;3068
1479;3072
1473;3074
1469;3077
1469;3079
1482;3081
1492;3084
1509;3086
1518;3089
1521;3091
1514;3093
1501;3096
1487;3098
1478;3101
1476;3103
1472;3105
1470;3108
1469;3110
1472;3113
1489;3116
1505;3119
1513;3121
1511;3123
1509;3126
1508;3128
1501;3131
1492;3133
1493;3135
1503;3138
1515;3140
1521;3143
1503;3145
1496;3147
1494;3150
1504;3152
1522;3155
1532;3158
1520;3160
1504;3163
1491;3165
1487;3168
1486;3170
1490;3172
1502;3175
1506;3177
1500;3180
1505;3182
1512;3185
1498;3187
1485;3189
1483;3192
1492;3194
1512;3197
1521;3200
1530;3202
1516;3205
1503;3207
1499;3210
1493;3212
1491;3214
1485;3217
1488;3219
1496;3222
1511;3224
1517;3226
1520;3229
1520;3231
1518;3234
1529;3236
1535;3238
1533;3241
1523;3244
1505;3247
1491;3249
1481;3251
1478;3254
1485;3256
1497;3259
1531;3261
1548;3263
1538;3266
1521;3268
1508;3271
1498;3273
1501;3275
1517;3278
1532;3280
1534;3283
1514;3286
1504;3289
1492;3291
1478;3293
1473;3296
1478;3298
1486;3301
1494;3303
1497;3305
1503;3308
1507;3310
1505;3313
1502;3315
1499;3317
1503;3320
1506;3322
1505;3325
1501;3328
1498;3330
1503;3333
1516;3335
1529;3338
1520;3340
1516;3342
1512;3345
1498;3347
1488;3350
1485;3352
1489;3354
1493;3357
1495;3359
1500;3362
1501;3364
1499;3366
1491;3369
1486;3372
1490;3375
1497;3377
1501;3380
1505;3382
1509;3384
1512;3387
1511;3389
1501;3392
1495;3394
1501;3396
1511;3399
1517;3401
1525;3404
1522;3406
1519;3408
1511;3411
1512;3414
1511;3417
1506;3419
1501;3421
1494;3424
1488;3426
1488;3429
1491;3431
1493;3433
1499;3436
1510;3438
1520;3441
1528;3443
1508;3445
1494;3448
1490;3450
1491;3453
1495;3456
1503;3458
1509;3461
1511;3463
1507;3466
1511;3468
1514;3471
1518;3473
1524;3475
1524;3478
1516;3480
1507;3483
1495;3485
1490;3487
1498;3490
1501;3492
1518;3495
1528;3497
1519;3500
1513;3503
1511;3505
1506;3508
1507;3510
1508;3512
1506;3515
1504;3517
1509;3520
1516;3522
1524;3524
1517;3527
1498;3529
1490;3532
1504;3534
1520;3537
1519;3539
1509;3542
1504;3545
1500;3547
1502;3550
1500;3552
1499;3554
1509;3557
1517;3559
1520;3562
1513;3564
1499;3566
1493;3569
1491;3571
1498;3574
1509;3576
1520;3578
1529;3581
1541;3584
1539;3587
1512;3589
1492;3591
1494;3594
1510;3596
1518;3599
1519;3601
1510;3603
1502;3606
1495;3608
1501;3611
1511;3613
1515;3616
1517;3618
1523;3620
1521;3623
1509;3625
1501;3629
1500;3631
1515;3633
1542;3636
1554;3638
1546;3641
1530;3643
1522;3645
1515;3648
1507;3650
1502;3653
1505;3655
1502;3657
1503;3660
1506;3662
1499;3665
1483;3667
1475;3670
1475;3673
1482;3675
1491;3678
1497;3680
1505;3682
1512;3685
1508;3687
1497;3690
1486;3692
1487;3695
1499;3697
1503;3699
1506;3702
1498;3704
1494;3707
1491;3709
1491;3712
1495;3715
1494;3717
1488;3720
1484;3722
1481;3724
1480;3727
1485;3729
1482;3732
1473;3734
1475;3736
1484;3739
1491;3741
1492;3744
1489;3746
1488;3748
1490;3751
1489;3753
1497;3757
1497;3759
1497;3761
1492;3764
1482;3766
1469;3769
1460;3771
1458;3773
1474;3776
1495;3778
1511;3781
1524;3783
1524;3786
1508;3788
1492;3790
1473;3793
1468;3795
1467;3799
1468;3801
1466;3803
1467;3806
1472;3808
1471;3811
1472;3813
1475;3815
1477;3818
1474;3820
1478;3823
1480;3825
1484;3827
1485;3830
1489;3832
1485;3835
1479;3837
1474;3840
1477;3843
1479;3845
1479;3848
1486;3850
1507;3853
1529;3855
1552;3857
1548;3860
1532;3862
1512;3865
1489;3867
1472;3869
1461;3872
1466;3874
1482;3877
1493;3879
1497;3881
1501;3885
1500;3887
1501;3890
1507;3892
1514;3894
1507;3897
1495;3899
1492;3902
1488;3904
1479;3906
1475;3909
1471;3911
1469;3914
1476;3916
1479;3918
1485;3921
1487;3923
1480;3927
1472;3929
1472;3932
1481;3934
1489;3936
1492;3939
1491;3941
1489;3944
1495;3946
1494;3948
1498;3951
1493;3953
1486;3956
1485;3958
1483;3960
1477;3963
1464;3965
1456;3969
1458;3971
1467;3973
1488;3976
1501;3978
1494;3981
1480;3983
1469;3985
1461;3988
1459;3990
1477;3993
1493;3995
1505;3997
1502;4000
1500;4002
1488;4005
1474;4007
1470;4011
1467;4013
1475;4015
1489;4018
1499;4020
1496;4023
1484;4025
1474;4027
1474;4030
1471;4032
1476;4035
1483;4037
1481;4039
1489;4042
1490;4044
1479;4047
1469;4049
1464;4051
1470;4055
1483;4057
1503;4060
1510;4062
1505;4064
1485;4067
1469;4069
1459;4072
1458;4074
1461;4076
1468;4079
1473;4081
1480;4084
1484;4086
1482;4088
1481;4091
1483;4093
1486;4097
1486;4099
1485;4101
1480;4104
1481;4106
1483;4109
1482;4111
1477;4114
1481;4116
1485;4118
1488;4121
1488;4123
1490;4126
1490;4128
1490;4130
1489;4133
1488;4135
1491;4139
1496;4141
1496;4143
1484;4146
1467;4148
1461;4151
1464;4153
1475;4155
1480;4158
1479;4160
1479;4163
1478;4165
1477;4167
1474;4170
1474;4172
1482;4175
1497;4177
1506;4179
1512;4183
1525;4185
1530;4188
1522;4190
1505;4192
1497;4195
1495;4197
1492;4200
1490;4202
1498;4205
1501;4207
1502;4209
1496;4212
1490;4214
1497;4217
1500;4219
1496;4221
1486;4225
1481;4227
1481;4230
1493;4232
1509;4234
1520;4237
1512;4239
1502;4242
1497;4244
1488;4246
1482;4249
1481;4251
1481;4254
1484;4256
1485;4258
1484;4261
1478;4263
1478;4267
1479;4269
1485;4271
1497;4274
1517;4276
1537;4279
1538;4281
1532;4284
1524;4286
1516;4288
1496;4291
1474;4293
1473;4296
1475;4298
1475;4300
1480;4303
1481;4305
1481;4308
1476;4311
1480;4313
1488;4316
1495;4318
1498;4321
1494;4323
1488;4325
1491;4328
1500;4330
1506;4333
1499;4335
1489;4337
1489;4340
1490;4342
1490;4345
1491;4347
1494;4349
1501;4353
1506;4355
1503;4358
1507;4360
1507;4362
1504;4365
1503;4367
1500;4370
1496;4372
1497;4375
1496;4377
1495;4379
1493;4382
1493;4384
1490;4387
1486;4389
1480;4391
1472;4395
1475;4397
1485;4400
1502;4402
1511;4404
1515;4407
1512;4409
1501;4412
1502;4414
1502;4416
1496;4419
1494;4421
1499;4424
1496;4426
1487;4428
1472;4431
1474;4433
1489;4436
1505;4439
1513;4442
1510;4444
1500;4446
1496;4449
1495;4451
1498;4454
1504;4456
1505;4458
1512;4461
1516;4463
1509;4466
1501;4468
1493;4470
1486;4473
1499;4475
1518;4478
1534;4481
1543;4483
1540;4486
1524;4488
1511;4491
1506;4493
1512;4495
1529;4498
1541;4500
1549;4503
1538;4505
1524;4507
1509;4510
1506;4512
1510;4515
1513;4517
1513;4520
1514;4523
1513;4525
1511;4528
1508;4530
1509;4533
1522;4535
1533;4537
1539;4540
1540;4542
1533;4545
1525;4547
1517;4549
1505;4552
1502;4554
1503;4557
1501;4559
1505;4561
1507;4564
1500;4567
1487;4570
1485;4572
1490;4574
1495;4577
1499;4579
1507;4582
1513;4584
1510;4586
1492;4589
1476;4591
1469;4594
1471;4596
1473;4599
1476;4601
1479;4603
1481;4606
1488;4609
1492;4612
1490;4614
1490;4616
1495;4619
1505;4621
1510;4624
1506;4626
1492;4628
1481;4631
1484;4633
1490;4636
1493;4638
1500;4640
1502;4643
1494;4645
1485;4648
1481;4651
1486;4653
1488;4656
1482;4658
1477;4661
1478;4663
1480;4666
1482;4668
1484;4670
1483;4673
1481;4675
1485;4678
1492;4680
1496;4682
1491;4685
1492;4687
1496;4690
1493;4692
1490;4695
1491;4698
1504;4700
1514;4703
1513;4705
1506;4707
1498;4710
1491;4712
1488;4715
1482;4717
1476;4719
1475;4722
1480;4724
1483;4727
1483;4729
1481;4731
1481;4734
1486;4737
1487;4740
1487;4742
1485;4745
1475;4747
1467;4749
1472;4752
1483;4754
1492;4757
1498;4759
1505;4761
1506;4764
1499;4766
1492;4769
1488;4771
1489;4773
1495;4776
1492;4779
1489;4782
1487;4784
1492;4786
1502;4789
1502;4791
1492;4794
1497;4796
1510;4798
1508;4801
1500;4803
1494;4806
1487;4808
1481;4811
1482;4813
1492;4815
1495;4818
1494;4820
1488;4824
1488;4826
1497;4828
1502;4831
1499;4833
1498;4836
1501;4838
1498;4840
1489;4843
1480;4845
1470;4848
1456;4850
1464;4852
1473;4855
1473;4857
1474;4860
1474;4862
1472;4865
1473;4868
1485;4870
1505;4873
1513;4875
1517;4877
1511;4880
1497;4882
1487;4885
1477;4887
1468;4889
1458;4892
1453;4894
1455;4897
1458;4899
1462;4902
1470;4904
1474;4907
1474;4910
1468;4912
1473;4915
1488;4917
1503;4919
1516;4922
1514;4924
1486;4927
1465;4929
1450;4931
1441;4934
1447;4936
1463;4939
1476;4941
1480;4943
1479;4946
1488;4948
1491;4952
1490;4954
1498;4956
1517;4959
1540;4961
1540;4964
1515;4966
1491;4968
1484;4971
1480;4973
1483;4976
1477;4978
1477;4980
1479;4983
1481;4985
1483;4988
1480;4990
1479;4994
1480;4996
1476;4998
1471;5001
1480;5003
1505;5006
1512;5008
1506;5010
1489;5013
1475;5015
1484;5018
1496;5020
1504;5022
1506;5025
1507;5027
1514;5030
1511;5032
1510;5035
1514;5038
1500;5040
1492;5043
1488;5045
1485;5047
1489;5050
1492;5052
1486;5055
1478;5057
1477;5060
1481;5062
1491;5064
1499;5067
1499;5069
1499;5072
1492;5074
1491;5076
1495;5080
1500;5082
1499;5085
1498;5087
1491;5089
1499;5092
1515;5094
1506;5097
1497;5099
1498;5101
1499;5104
1500;5106
1493;5109
1488;5111
1487;5113
1498;5116
1511;5118
1518;5122
1514;5124
1502;5127
1488;5129
1483;5131
1481;5134
1493;5136
1507;5139
1520;5141
1523;5143
1507;5146
1501;5148
1496;5151
1486;5153
1479;5155
1482;5158
1495;5160
1500;5164
1506;5166
1502;5168
1492;5171
1487;5173
1486;5176
1492;5178
1497;5180
1501;5183
1499;5185
1493;5188
1486;5190
1496;5192
1510;5195
1509;5197
1494;5200
1483;5202
1480;5204
1478;5208
1478;5210
1478;5213
1490;5215
1502;5218
1519;5220
1525;5222
1505;5225
1495;5227
1497;5230
1500;5232
1507;5234
1510;5237
1508;5239
1517;5242
1521;5244
1513;5246
1509;5250
1496;5252
1484;5255
1485;5257
1485;5259
1491;5262
1501;5264
1510;5267
1518;5269
1526;5271
1525;5274
1522;5276
1519;5279
1513;5281
1506;5283
1498;5286
1491;5288
1491;5292
1494;5294
1512;5297
1527;5299
1529;5301
1520;5304
1516;5306
1511;5309
1505;5311
1509;5313
1519;5316
1518;5318
1519;5321
1511;5323
1524;5325
1526;5328
1519;5330
1510;5334
1509;5336
1507;5338
1503;5341
1505;5343
1517;5346
1526;5348
1535;5350
1521;5353
1518;5355
1522;5358
1522;5360
1519;5362
1509;5365
1496;5367
1492;5370
1497;5372
1504;5376
1514;5378
1519;5380
1516;5383
1514;5385
1512;5388
1508;5390
1491;5392
1495;5395
1517;5397
1527;5400
1513;5402
1500;5404
1491;5407
1488;5409
1491;5412
1500;5414
1521;5416
1541;5420
1539;5422
1524;5425
1501;5427
1483;5429
1478;5432
1479;5434
1486;5437
1489;5439
1487;5441
1479;5444
1467;5446
1462;5449
1464;5451
1473;5454
1482;5456
1485;5458
1486;5462
1492;5464
1494;5467
1486;5469
1479;5471
1475;5474
1486;5476
1487;5479
1495;5481
1496;5483
1486;5486
1479;5488
1483;5491
1479;5493
1476;5495
1480;5498
1489;5500
1499;5504
1496;5506
1486;5508
1477;5511
1472;5513
1474;5516
1475;5518
1473;5520
1469;5523
1474;5525
1469;5528
1457;5530
1442;5533
1456;5535
1488;5537
1533;5540
1553;5542
1522;5545
1496;5548
1482;5550
1474;5553
1467;5555
1467;5558
1473;5560
1489;5562
1490;5565
1479;5567
1472;5570
1465;5572
1475;5574
1492;5577
1494;5579
1488;5582
1475;5584
1466;5586
1471;5590
1472;5592
1477;5595
1494;5597
1502;5599
1499;5602
1491;5604
1491;5607
1491;5609
1480;5612
1479;5614
1489;5616
1497;5619
1491;5621
1481;5624
1478;5626
1493;5628
1505;5632
1502;5634
1500;5637
1488;5639
1473;5641
1467;5644
1465;5646
1464;5649
1470;5651
1465;5653
1469;5656
1472;5658
1477;5661
1480;5663
1484;5665
1482;5668
1476;5670
1468;5673
1471;5676
1473;5678
1476;5681
1477;5683
1477;5686
1475;5688
1469;5691
1459;5693
1459;5695
1467;5698
1474;5700
1489;5703
1499;5705
1500;5707
1497;5710
1490;5712
1484;5715
1482;5718
1488;5720
1496;5723
1495;5725
1496;5728
1498;5730
1481;5732
1473;5735
1476;5737
1480;5740
1482;5742
1478;5744
1472;5747
1470;5749
1470;5752
1475;5754
1480;5757
1474;5760
1470;5762
1469;5765
1474;5767
1467;5770
1468;5772
1478;5774
1484;5777
1487;5779
1495;5782
1497;5784
1490;5786
1482;5789
1479;5791
1486;5794
1500;5796
1503;5798
1494;5801
1491;5804
1484;5807
1478;5809
1472;5811
1474;5814
1483;5816
1495;5819
1493;5821
1488;5823
1479;5826
1477;5828
1484;5831
1492;5833
1492;5836
1483;5838
1474;5840
1475;5843
1475;5846
1477;5849
1475;5851
1464;5853
1462;5856
1471;5858
1479;5861
1482;5863
1479;5865
1477;5868
1475;5870
1482;5873
1488;5875
1482;5877
1477;5880
1480;5882
1481;5885
1482;5888
1485;5890
1485;5893
1480;5895
1481;5898
1488;5900
1497;5902
1502;5905
1501;5907
1507;5910
1501;5912
1486;5915
1480;5917
1488;5919
1496;5922
1502;5924
1497;5927
1489;5929
1479;5932
1477;5935
1485;5937
1495;5940
1502;5942
1500;5944
1491;5947
1483;5949
1483;5952
1486;5954
1492;5956
1492;5959
1492;5961
1490;5964
1487;5966
1485;5968
1482;5971
1485;5974
1492;5977
1495;5979
1498;5981
1502;5984
1516;5986
1525;5989
1537;5991
1534;5994
1526;5996
1519;5998
1512;6001
1506;6003
1505;6006
1503;6008
1496;6010
1486;6013
1481;6016
1491;6019
1499;6021
1496;6023
1490;6026
1488;6028
1485;6031
1478;6033
1474;6035
1482;6038
1491;6040
1499;6043
1505;6045
1501;6047
1495;6050
1492;6052
1501;6055
1515;6057
1526;6061
1528;6063
1525;6065
1521;6068
1521;6070
1506;6073
1502;6075
1497;6077
1492;6080
1502;6082
1511;6085
1512;6087
1512;6089
1511;6092
1513;6094
1513;6097
1518;6099
1517;6102
1510;6105
1497;6107
1490;6110
1488;6112
1481;6114
1481;6117
1495;6119
1509;6122
1521;6124
1504;6126
1479;6129
1467;6131
1466;6134
1471;6136
1473;6139
1483;6141
1489;6144
1489;6147
1488;6149
1491;6152
1486;6154
1496;6156
1502;6159
1500;6161
1491;6164
1491;6166
1486;6168
1490;6171
1489;6173
1484;6176
1486;6178
1489;6180
1489;6183
1482;6185
1478;6189
1489;6191
1521;6193
1537;6196
1520;6198
1501;6201
1490;6203
1481;6206
1477;6208
1475;6210
1468;6213
1467;6215
1476;6218
1484;6220
1489;6222
1484;6225
1478;6227
1474;6231
1470;6233
1482;6235
1488;6238
1487;6240
1485;6243
1488;6245
1489;6247
1483;6250
1466;6252
1458;6255
1467;6257
1469;6259
1471;6262
1465;6264
1456;6267
1454;6269
1459;6272
1476;6275
1486;6277
1479;6280
1472;6282
1470;6285
1461;6287
1458;6289
1476;6292
1490;6294
1486;6297
1465;6299
1452;6301
1441;6304
1438;6306
1437;6309
1440;6311
1445;6313
1455;6317
1456;6319
1463;6322
1471;6324
1475;6326
1480;6329
1490;6331
1489;6334
1479;6336
1457;6338
1456;6341
1457;6343
1444;6346
1429;6348
1427;6351
1444;6353
1460;6355
1466;6359
1470;6361
1470;6364
1458;6366
1451;6368
1460;6371
1462;6373
1461;6376
1465;6378
1469;6380
1480;6383
1480;6385
1468;6388
1458;6390
1444;6392
1440;6395
1442;6397
1446;6401
1453;6403
1458;6405
1460;6408
1466;6410
1465;6413
1477;6415
1477;6418
1474;6420
1465;6422
1462;6425
1458;6427
1465;6430
1469;6432
1470;6434
1481;6437
1490;6439
1484;6443
1470;6445
1448;6447
1445;6450
1452;6452
1457;6455
1461;6457
1466;6459
1474;6462
1478;6464
1481;6467
1473;6469
1466;6471
1458;6474
1454;6476
1454;6479
1451;6481
1446;6483
1441;6487
1437;6489
1438;6492
1445;6494
1456;6496
1467;6499
1470;6501
1465;6504
1458;6506
1455;6508
1454;6511
1448;6513
1445;6516
1444;6518
1446;6520
1458;6523
1463;6525
1460;6529
1449;6531
1433;6533
1438;6536
1442;6538
1441;6541
1443;6543
1444;6546
1440;6548
1439;6550
1436;6553
1437;6555
1442;6558
1444;6560
1445;6562
1444;6565
1441;6567
1437;6571
1446;6573
1463;6575
1486;6578
1487;6580
1473;6583
1457;6585
1445;6587
1438;6590
1435;6592
1436;6595
1440;6597
1445;6599
1450;6602
1457;6604
1456;6607
1455;6609
1448;6611
1445;6615
1448;6617
1451;6620
1457;6622
1459;6624
1454;6627
1452;6629
1450;6632
1452;6634
1461;6637
1471;6639
1483;6641
1489;6644
1491;6646
1484;6649
1480;6651
1481;6653
1483;6657
1482;6659
1484;6662
1484;6664
1482;6666
1476;6669
1471;6671
1467;6674
1472;6676
1485;6678
1501;6681
1506;6683
1496;6686
1484;6688
1471;6690
1477;6693
1501;6695
1507;6699
1499;6701
1497;6703
1501;6706
1504;6708
1503;6711
1497;6713
1501;6715
1500;6718
1504;6720
1511;6723
1513;6725
1503;6728
1496;6730
1494;6732
1501;6735
1509;6737
1511;6740
1507;6743
1495;6745
1498;6748
1504;6750
1509;6753
1509;6755
1504;6757
1504;6760
1506;6762
1505;6765
1486;6767
1468;6769
1459;6772
1468;6774
1483;6777
1486;6779
1485;6781
1490;6785
1496;6787
1496;6790
1487;6792
1482;6795
1486;6797
1490;6799
1500;6802
1502;6804
1488;6807
1480;6809
1487;6811
1492;6814
1489;6816
1486;6819
1488;6821
1492;6823
1492;6827
1504;6829
1508;6832
1503;6834
1509;6836
1508;6839
1507;6841
1512;6844
1512;6846
1512;6848
1510;6851
1506;6853
1507;6856
1512;6858
1514;6860
1516;6863
1515;6865
1527;6868
1531;6871
1535;6874
1521;6876
1512;6878
1513;6881
1509;6883
1503;6886
1509;6888
1512;6890
1503;6893
1501;6895
1502;6898
1502;6900
1498;6902
1492;6905
1492;6907
1503;6910
1507;6913
1513;6915
1529;6918
1539;6920
1536;6923
1525;6925
1508;6927
1493;6930
1485;6932
1483;6935
1494;6937
1504;6939
1517;6942
1524;6944
1524;6947
1519;6949
1516;6952
1520;6955
1527;6957
1529;6960
1523;6962
1514;6965
1516;6967
1512;6969
1524;6972
1539;6974
1533;6977
1513;6979
1499;6981
1493;6984
1490;6986
1490;6989
1489;6991
1493;6993
1500;6996
1505;6999
1500;7002
1504;7004
1502;7006
1498;7009
1489;7011
1476;7014
1478;7016
1485;7019
1497;7021
1513;7023
1506;7026
1486;7028
1480;7031
1482;7033
1490;7035
1496;7038
1491;7041
1496;7044
1499;7046
1494;7048
1486;7051
1477;7053
1475;7056
1477;7058
1478;7060
1480;7063
1482;7065
1485;7068
1491;7070
1498;7072
1504;7075
1509;7077
1513;7080
1512;7083
1502;7085
1497;7088
1500;7090
1509;7093
1514;7095
1507;7097
1503;7100
1510;7102
1512;7105
1505;7107
1506;7110
1520;7112
1532;7114
1519;7117
1500;7119
1495;7122
1503;7124
1510;7127
1505;7130
1497;7132
1493;7135
1502;7137
1503;7139
1484;7142
1474;7144
1475;7147
1475;7149
1476;7151
1477;7154
1486;7156
1493;7159
1499;7161
1501;7163
1507;7166
1511;7169
1508;7172
1498;7174
1493;7177
1501;7179
1515;7181
1516;7184
1506;7186
1491;7189
1487;7191
1490;7193
1513;7196
1529;7198
1540;7201
1557;7203
1555;7205
1532;7208
1512;7211
1492;7214
1484;7216
1476;7218
1474;7221
1489;7223
1509;7226
1514;7228
1503;7230
1495;7233
1494;7235
1497;7238
1497;7240
1495;7243
1498;7245
1497;7247
1493;7250
1500;7252
1513;7256
1525;7258
1526;7260
1521;7263
1512;7265
1498;7268
1487;7270
1486;7272
1495;7275
1504;7277
1516;7280
1523;7282
1519;7284
1518;7287
1529;7289
1523;7292
1520;7294
1519;7297
1515;7300
1509;7302
1505;7305
1499;7307
1490;7310
1480;7312
1480;7314
1487;7317
1504;7319
1521;7322
1513;7324
1495;7326
1485;7329
1482;7331
1479;7334
1482;7336
1492;7339
1510;7342
1524;7344
1518;7347
1497;7349
1485;7351
1493;7354
1511;7356
1527;7359
1531;7361
1513;7363
1483;7366
1464;7368
1461;7371
1472;7373
1484;7376
1489;7378
1495;7380
1493;7384
1482;7386
1471;7389
1468;7391
1477;7393
1484;7396
1488;7398
1488;7401
1485;7403
1481;7405
1484;7408
1503;7410
1507;7413
1507;7415
1520;7417
1519;7420
1508;7422
1491;7426
1480;7428
1463;7430
1452;7433
1463;7435
1490;7438
1505;7440
1517;7442
1518;7445
1504;7447
1505;7450
1497;7452
1481;7455
1478;7457
1483;7459
1489;7462
1493;7464
1501;7468
1507;7470
1497;7472
1480;7475
1479;7477
1484;7480
1491;7482
1499;7484
1503;7487
1515;7489
1512;7492
1506;7494
1492;7496
1483;7499
1488;7501
1481;7504
1474;7506
1477;7508
1469;7512
1473;7514
1487;7517
1500;7519
1510;7522
1506;7524
1493;7526
1491;7529
1501;7531
1512;7534
1505;7536
1495;7538
1495;7541
1494;7543
1487;7546
1479;7548
1472;7550
1472;7554
1474;7556
1487;7559
1501;7561
1500;7563
1486;7566
1474;7568
1467;7571
1461;7573
1468;7575
1486;7578
1489;7580
1496;7583
1500;7585
1502;7588
1506;7590
1510;7592
1514;7596
1517;7598
1517;7601
1511;7603
1500;7605
1494;7608
1499;7610
1501;7613
1493;7615
1494;7617
1490;7620
1491;7622
1494;7625
1483;7627
1478;7629
1481;7632
1485;7634
1487;7638
1499;7640
1513;7642
1517;7645
1509;7647
1501;7650
1488;7652
1477;7655
1477;7657
1478;7659
1478;7662
1480;7664
1473;7667
1464;7669
1475;7671
1493;7674
1517;7676
1523;7680
1521;7682
1497;7684
1470;7687
1463;7689
1460;7692
1462;7694
1482;7696
1494;7699
1494;7701
1482;7704
1473;7706
1479;7708
1487;7711
1498;7713
1529;7716
1555;7718
1551;7720
1533;7724
1533;7726
1517;7729
1487;7731
1463;7734
1451;7736
1450;7738
1455;7741
1480;7743
1504;7746
1529;7748
1562;7750
1559;7753
1533;7755
1509;7758
1486;7760
1474;7762
1465;7766
1465;7768
1467;7771
1462;7773
1465;7775
1490;7778
1533;7780
1544;7783
1525;7785
1493;7787
1450;7790
1435;7792
1431;7795
1434;7797
1436;7799
1439;7802
1436;7804
1445;7808
1462;7810
1478;7813
1482;7815
1479;7817
1481;7820
1485;7822
1484;7825
1469;7827
1449;7829
1434;7832
1434;7834
1440;7837
1450;7839
1460;7841
1486;7844
1509;7846
1522;7849
1512;7852
1505;7854
1502;7857
1480;7859
1465;7862
1461;7864
1456;7866
1454;7869
1455;7871
1457;7874
1465;7876
1473;7879
1475;7881
1470;7883
1461;7886
1449;7888
1445;7891
1461;7894
1481;7896
1509;7899
1531;7901
1529;7904
1501;7906
1490;7908
1492;7911
1490;7913
1496;7916
1498;7918
1502;7920
1505;7923
1499;7925
1492;7928
1495;7930
1495;7933
1491;7936
1487;7938
1477;7941
1472;7943
1468;7946
1462;7948
1458;7950
1455;7953
1460;7955
1476;7958
1504;7960
1522;7962
1513;7965
1480;7967
1460;7970
1450;7972
1452;7974
1464;7977
1479;7980
1485;7983
1483;7985
1481;7987
1483;7990
1484;7992
1485;7995
1491;7997
1496;8000
1507;8002
1510;8004
1492;8007
1470;8009
1459;8012
1460;8014
1467;8016
1473;8019
1478;8022
1484;8025
1487;8027
1488;8029
1489;8032
1487;8034
1488;8037
1486;8039
1473;8041
1469;8044
1471;8046
1468;8049
1462;8051
1471;8053
1489;8056
1505;8058
1495;8061
1493;8064
1487;8066
1480;8069
1472;8071
1474;8074
1488;8076
1519;8078
1525;8081
1508;8083
1496;8086
1485;8088
1478;8090
1476;8093
1487;8095
1496;8098
1502;8100
1508;8103
1517;8105
1525;8108
1527;8111
1523;8113
1517;8116
1521;8118
1532;8120
1536;8123
1525;8125
1516;8128
1512;8130
1507;8132
1521;8135
1529;8137
1534;8140
1533;8142
1533;8144
1522;8147
1517;8150
1518;8153
1526;8155
1532;8157
1538;8160
1541;8162
1532;8165
1519;8167
1510;8169
1505;8172
1497;8174
1496;8177
1501;8179
1506;8182
1508;8184
1511;8186
1525;8189
1523;8192
1512;8195
1512;8197
1514;8199
1516;8202
1516;8204
1514;8207
1504;8209
1496;8211
1493;8214
1498;8216
1502;8219
1509;8221
1514;8223
1514;8226
1508;8228
1509;8231
1516;8233
1529;8236
1527;8239
1529;8241
1536;8244
1533;8246
1512;8248
1490;8251
1504;8253
1523;8256
1518;8258
1506;8261
1503;8263
1512;8265
1521;8268
1518;8270
1504;8273
1498;8275
1505;8278
1512;8281
1527;8283
1541;8286
1540;8288
1524;8290
1511;8293
1500;8295
1495;8298
1490;8300
1492;8302
1499;8305
1499;8307
1521;8310
1529;8312
1513;8314
1505;8317
1506;8320
1506;8323
1513;8325
1510;8328
1492;8330
1495;8332
1518;8335
1532;8337
1526;8340
1519;8342
1517;8344
1500;8347
1486;8349
1492;8352
1492;8354
1489;8356
1495;8359
1507;8361
1503;8365
1493;8367
1483;8369
1478;8372
1477;8374
1478;8377
1487;8379
1505;8381
1532;8384
1528;8386
1508;8389
1498;8391
1483;8393
1473;8396
1472;8398
1473;8401
1474;8403
1474;8407
1473;8409
1465;8411
1458;8414
1476;8416
1508;8419
1511;8421
1490;8423
1479;8426
1472;8428
1469;8431
1478;8433
1490;8435
1497;8438
1486;8440
1486;8443
1498;8445
1505;8448
1506;8451
1492;8453
1476;8456
1473;8458
1479;8460
1494;8463
1498;8465
1528;8468
1542;8470
1505;8472
1478;8475
1477;8477
1476;8480
1478;8482
1478;8484
1490;8487
1489;8489
1486;8493
1472;8495
1470;8498
1469;8500
1471;8502
1472;8505
1467;8507
1471;8510
1468;8512
1461;8514
1478;8517
1486;8519
1489;8522
1495;8524
1498;8526
1488;8529
1466;8531
1460;8535
1462;8537
1458;8539
1465;8542
1480;8544
1484;8547
1478;8549
1466;8551
1468;8554
1494;8556
1500;8559
1486;8561
1472;8563
1474;8566
1479;8568
1480;8571
1473;8573
1457;8577
1470;8579
1476;8581
1476;8584
1472;8586
1466;8589
1469;8591
1474;8593
1483;8596
1496;8598
1496;8601
1491;8603
1485;8605
1468;8608
1468;8610
1482;8613
1498;8615
1498;8617
1484;8621
1477;8623
1481;8626
1500;8628
1505;8630
1494;8633
1486;8635
1476;8638
1468;8640
1482;8642
1503;8645
1506;8647
1499;8650
1484;8652
1469;8655
1466;8657
1463;8659
1466;8663
1474;8665
1476;8668
1478;8670
1478;8672
1476;8675
1472;8677
1465;8680
1483;8682
1492;8684
1482;8687
1467;8689
1460;8692
1458;8694
1462;8696
1469;8699
1480;8701
1491;8705
1503;8707
1509;8709
1509;8712
1497;8714
1490;8717
1479;8719
1473;8721
1470;8724
1468;8726
1471;8729
1475;8731
1485;8734
1498;8736
1511;8738
1518;8741
1514;8743
1496;8747
1483;8749
1476;8751
1469;8754
1469;8756
1471;8759
1480;8761
1498;8763
1514;8766
1509;8768
1499;8771
1489;8773
1486;8775
1479;8778
1491;8780
1508;8783
1505;8785
1492;8787
1490;8791
1487;8793
1490;8796
1494;8798
1492;8801
1491;8803
1490;8805
1487;8808
1487;8810
1485;8813
1486;8815
1486;8817
1483;8820
1484;8822
1489;8825
1493;8827
1490;8829
1483;8833
1484;8835
1494;8838
1508;8840
1512;8842
1519;8845
1517;8847
1501;8850
1486;8852
1478;8854
1484;8857
1494;8859
1503;8862
1496;8864
1492;8866
1494;8869
1491;8871
1485;8875
1487;8877
1496;8880
1507;8882
1509;8884
1499;8887
1486;8889
1482;8892
1485;8894
1496;8896
1507;8899
1512;8901
1510;8904
1514;8906
1512;8908
1502;8911
1496;8913
1499;8916
1505;8919
1508;8921
1510;8924
1506;8926
1508;8929
1511;8931
1500;8933
1490;8936
1485;8938
1484;8941
1484;8943
1481;8946
1485;8948
1491;8950
1504;8953
1511;8955
1512;8958
1505;8961
1501;8963
1498;8966
1493;8968
1488;8971
1484;8973
1484;8975
1489;8978
1496;8980
1510;8983
1515;8985
1515;8987
1504;8990
1497;8992
1499;8995
1507;8997
1513;8999
1517;9003
1519;9005
1521;9008
1525;9010
1522;9012
1517;9015
1532;9017
1539;9020
1526;9022
1513;9024
1507;9027
1508;9029
1510;9032
1512;9034
1518;9037
1520;9039
1532;9041
1540;9044
1531;9047
1514;9050
1501;9052
1496;9054
1496;9057
1496;9059
1495;9062
1499;9064
1501;9066
1497;9069
1487;9071
1478;9074
1484;9076
1506;9078
1537;9081
1567;9083
1564;9086
1539;9089
1520;9091
1503;9094
1495;9096
1490;9099
1488;9101
1489;9104
1492;9106
1494;9108
1495;9111
1491;9113
1494;9116
1502;9118
1505;9120
1511;9123
1524;9125
1527;9128
1525;9131
1516;9133
1524;9136
1534;9138
1531;9141
1520;9143
1513;9145
1505;9148
1508;9150
1514;9153
1519;9155
1533;9157
1534;9160
1533;9162
1528;9165
1514;9167
1507;9170
1508;9172
1514;9175
1524;9178
1515;9180
1503;9183
1505;9185
1504;9187
1493;9190
1490;9192
1491;9195
1498;9197
1507;9199
1517;9202
1523;9204
1520;9207
1507;9209
1499;9211
1499;9214
1505;9217
1511;9220
1513;9222
1513;9224
1513;9227
1512;9229
1513;9232
1511;9234
1515;9237
1511;9239
1500;9241
1495;9244
1511;9246
1525;9249
1533;9251
1531;9253
1527;9256
1525;9259
1523;9262
1527;9264
1523;9266
1519;9269
1522;9271
1517;9274
1515;9276
1518;9278
1518;9281
1514;9283
1514;9286
1509;9288
1502;9290
1502;9293
1506;9295
1519;9298
1530;9300
1526;9304
1512;9306
1495;9308
1490;9311
1497;9313
1512;9316
1517;9318
1519;9320
1523;9323
1527;9325
1522;9328
1509;9330
1496;9332
1489;9335
1490;9337
1494;9340
1501;9342
1509;9345
1508;9348
1507;9350
1504;9353
1505;9355
1513;9357
1523;9360
1525;9362
1529;9365
1524;9367
1510;9370
1497;9372
1492;9374
1500;9377
1510;9379
1514;9382
1517;9384
1517;9387
1514;9390
1519;9392
1520;9395
1526;9397
1528;9399
1522;9402
1511;9404
1502;9407
1495;9409
1489;9411
1488;9414
1497;9416
1498;9419
1501;9421
1507;9423
1508;9426
1503;9428
1498;9432
1497;9434
1511;9437
1532;9439
1549;9441
1547;9444
1519;9446
1499;9449
1485;9451
1480;9453
1483;9456
1491;9458
1496;9461
1500;9463
1498;9465
1493;9468
1491;9470
1493;9474
1496;9476
1499;9478
1498;9481
1495;9483
1494;9486
1493;9488
1492;9490
1506;9493
1527;9495
1553;9498
1561;9500
1547;9503
1534;9505
1524;9507
1515;9510
1503;9512
1502;9516
1503;9518
1502;9520
1510;9523
1515;9525
1513;9528
1520;9530
1513;9532
1503;9535
1506;9537
1507;9540
1505;9542
1497;9544
1490;9547
1491;9549
1498;9552
1500;9554
1504;9556
1498;9560
1506;9562
1508;9565
1502;9567
1496;9570
1500;9572
1506;9574
1510;9577
1517;9579
1529;9582
1544;9584
1553;9586
1539;9589
1512;9591
1501;9594
1507;9596
1513;9598
1514;9602
1511;9604
1505;9607
1500;9609
1499;9611
1501;9614
1507;9616
1512;9619
1513;9621
1507;9623
1509;9626
1530;9628
1553;9631
1560;9633
1551;9635
1535;9638
1520;9640
1506;9644
1494;9646
1483;9649
1478;9651
1476;9653
1485;9656
1496;9658
1501;9661
1502;9663
1506;9665
1515;9668
1525;9670
1528;9673
1537;9675
1525;9677
1531;9680
1545;9682
1537;9686
1516;9688
1502;9690
1493;9693
1489;9695
1490;9698
1495;9700
1500;9702
1507;9705
1511;9707
1520;9710
1525;9712
1523;9714
1520;9717
1511;9719
1503;9722
1499;9724
1494;9728
1486;9730
1477;9732
1472;9735
1477;9737
1484;9740
1491;9742
1498;9744
1505;9747
1503;9749
1499;9752
1509;9754
1515;9756
1502;9759
1487;9761
1474;9764
1461;9766
1452;9768
1453;9772
1459;9774
1475;9777
1494;9779
1506;9781
1513;9784
1513;9786
1504;9789
1496;9791
1492;9794
1497;9796
1507;9798
1512;9801
1510;9803
1505;9806
1502;9808
1499;9810
1491;9814
1496;9816
1507;9819
1516;9821
1518;9823
1508;9826
1492;9828
1480;9831
1468;9833
1459;9835
1460;9838
1467;9840
1468;9843
1464;9845
1453;9847
1443;9850
1447;9852
1456;9856
1468;9858
1469;9861
1468;9863
1458;9865
1455;9868
1454;9870
1445;9873
1441;9875
1450;9877
1457;9880
1464;9882
1468;9885
1467;9887
1465;9889
1470;9892
1477;9894
1490;9897
1492;9900
1481;9902
1468;9905
1466;9907
1463;9910
1461;9912
1459;9914
1459;9917
1466;9919
1473;9922
1477;9924
1479;9927
1488;9929
1499;9931
1501;9934
1495;9936
1482;9939
1477;9942
1475;9944
1467;9947
1463;9949
1467;9952
1469;9954
1472;9956
1480;9959
1488;9961
1499;9964
1513;9966
1514;9968
1494;9971
1474;9973
1479;9976
1485;9978
1484;9980
1474;9984
1458;9986
1452;9989
1456;9991
1464;9993
1468;9996
1476;9998
1483;10001
1488;10003
1488;10006
1485;10008
1478;10011
1468;10013
1469;10015
1482;10018
1484;10020
1488;10023
1474;10025
1456;10029
1447;10031
1442;10034
1446;10036
1470;10039
1492;10041
1502;10043
1489;10046
1468;10048
1479;10051
1494;10053
1508;10056
1501;10058
1478;10061
1459;10063
1450;10066
1445;10068
1444;10072
1440;10074
1441;10076
1445;10079
1450;10081
1454;10084
1453;10086
1448;10089
1447;10091
1449;10094
1452;10096
1459;10099
1463;10101
1462;10103
1454;10106
1455;10108
1464;10112
1479;10114
1484;10117
1486;10119
1482;10122
1473;10124
1469;10127
1468;10129
1466;10131
1470;10134
1474;10136
1473;10139
1469;10141
1461;10144
1458;10146
1464;10149
1473;10151
1487;10155
1497;10157
1493;10160
1480;10162
1472;10164
1459;10167
1447;10169
1442;10172
1441;10174
1446;10177
1449;10179
1447;10182
1445;10184
1436;10187
1426;10189
1416;10191
1418;10194
1432;10196
1451;10200
1466;10202
1477;10205
1483;10207
1477;10210
1480;10212
1492;10215
1485;10217
1469;10219
1455;10222
1441;10224
1432;10227
1430;10229
1429;10232
1437;10234
1454;10237
1468;10240
1475;10243
1477;10245
1471;10247
1463;10250
1455;10252
1450;10255
1452;10257
1455;10260
1457;10262
1456;10265
1454;10267
1460;10270
1466;10272
1488;10275
1502;10277
1499;10279
1493;10283
1491;10285
1492;10288
1482;10290
1467;10293
1451;10295
1444;10298
1451;10300
1463;10303
1468;10305
1468;10307
1461;10310
1452;10312
1446;10315
1450;10317
1456;10320
1464;10322
1462;10326
1460;10328
1466;10331
1485;10333
1504;10335
1501;10338
1480;10340
1466;10343
1461;10345
1456;10348
1453;10350
1456;10353
1457;10355
1456;10358
1454;10360
1456;10363
1462;10365
1464;10368
1462;10371
1455;10373
1447;10376
1447;10378
1449;10381
1454;10383
1458;10386
1459;10388
1463;10391
1463;10393
1467;10395
1472;10398
1474;10400
1476;10403
1469;10405
1459;10408
1457;10411
1451;10414
1447;10416
1449;10419
1455;10421
1472;10423
1487;10426
1487;10428
1477;10431
1465;10433
1460;10436
1462;10438
1464;10441
1466;10443
1467;10446
1466;10448
1467;10450
1469;10454
1477;10456
1490;10459
1490;10461
1482;10464
1477;10466
1476;10469
1480;10471
1478;10474
1479;10476
1495;10479
1503;10481
1502;10483
1493;10486
1487;10488
1487;10491
1477;10493
1487;10497
1501;10499
1506;10502
1506;10504
1498;10507
1487;10509
1477;10511
1473;10514
1474;10516
1477;10519
1479;10521
1481;10524
1486;10526
1484;10529
1478;10531
1476;10534
1479;10536
1483;10539
1485;10542
1489;10544
1486;10547
1477;10549
1474;10552
1481;10554
1500;10557
1511;10559
1516;10562
1515;10564
1512;10566
1507;10569
1495;10571
1478;10574
1475;10576
1476;10579
1477;10582
1480;10585
1481;10587
1482;10590
1481;10592
1481;10595
1483;10597
1488;10599
1488;10602
1493;10604
1500;10607
1508;10609
1510;10612
1506;10614
1502;10617
1495;10619
1499;10622
1502;10625
1497;10627
1489;10630
1500;10632
1512;10635
1510;10637
1506;10640
1501;10642
1496;10645
1487;10647
1477;10650
1472;10652
1473;10654
1484;10657
1498;10659
1504;10662
1506;10664
1500;10668
1490;10670
1480;10673
1476;10675
1479;10678
1476;10680
1484;10683
1487;10685
1485;10687
1483;10690
1478;10692
1483;10695
1498;10697
1516;10700
1522;10702
1513;10705
1497;10707
1487;10711
1484;10713
1484;10715
1485;10718
1484;10720
1493;10723
1499;10725
1507;10728
1519;10730
1534;10733
1538;10735
1539;10738
1529;10740
1513;10742
1498;10745
1486;10747
1482;10750
1483;10753
1494;10756
1511;10758
1516;10761
1511;10763
1494;10766
1474;10768
1461;10770
1458;10773
1466;10775
1472;10778
1477;10780
1482;10783
1491;10785
1494;10788
1495;10790
1493;10793
1490;10796
1483;10799
1479;10801
1486;10803
1486;10806
1476;10808
1473;10811
1478;10813
1492;10816
1513;10818
1518;10821
1501;10823
1494;10826
1491;10828
1488;10830
1488;10833
1486;10835
1494;10839
1501;10841
1502;10844
1502;10846
1489;10849
1479;10851
1475;10854
1474;10856
1473;10858
1484;10861
1503;10863
1512;10866
1506;10868
1497;10871
1497;10873
1509;10876
1520;10878
1523;10882
1526;10884
1518;10887
1517;10889
1506;10891
1496;10894
1497;10896
1508;10899
1502;10901
1514;10904
1517;10906
1509;10909
1503;10911
1525;10914
1547;10916
1561;10918
1542;10921
1518;10924
1507;10927
1501;10929
1495;10932
1488;10934
1492;10937
1497;10939
1502;10942
1504;10944
1499;10946
1499;10949
1503;10951
1499;10954
1493;10956
1488;10959
1486;10961
1489;10964
1491;10967
1495;10970
1490;10972
1488;10974
1493;10977
1497;10979
1505;10982
1524;10984
1541;10987
1537;10989
1525;10992
1508;10994
1498;10997
1496;10999
1494;11002
1493;11004
1497;11006
1506;11010
1517;11012
1515;11015
1504;11017
1499;11020
1504;11022
1505;11025
1501;11027
1490;11030
1476;11032
1481;11034
1497;11037
1511;11039
1508;11042
1502;11044
1500;11047
1497;11049
1496;11053
1495;11055
1492;11058
1487;11060
1483;11062
1481;11065
1478;11067
1474;11070
1471;11072
1476;11075
1486;11077
1494;11080
1502;11082
1509;11085
1508;11087
1501;11090
1492;11092
1492;11095
1500;11098
1506;11100
1511;11103
1514;11105
1508;11108
1495;11110
1479;11113
1474;11115
1479;11118
1475;11120
1469;11122
1466;11125
1477;11127
1486;11130
1488;11132
1481;11136
1479;11138
1478;11141
1478;11143
1480;11146
1477;11148
1470;11150
1465;11153
1465;11155
1476;11158
1483;11160
1486;11163
1481;11165
1476;11168
1475;11170
1480;11173
1488;11175
1490;11179
1485;11181
1482;11183
1476;11186
1470;11188
1468;11191
1472;11193
1473;11196
1486;11198
1499;11201
1501;11203
1494;11206
1494;11208
1485;11210
1476;11213
1471;11215
1475;11218
1488;11220
1508;11224
1524;11226
1514;11229
1493;11231
1478;11234
1472;11236
1475;11238
1476;11241
1480;11243
1482;11246
1485;11248
1486;11251
1493;11253
1496;11256
1494;11258
1494;11261
1498;11264
1498;11267
1490;11269
1482;11271
1475;11274
1477;11276
1485;11279
1492;11281
1504;11284
1516;11286
1524;11289
1522;11291
1516;11294
1506;11296
1498;11298
1495;11301
1498;11303
1498;11307
1495;11309
1493;11312
1499;11314
1506;11317
1510;11319
1505;11322
1505;11324
1497;11326
1483;11329
1471;11331
1468;11334
1473;11336
1479;11339
1481;11341
1482;11344
1485;11346
1489;11350
1490;11352
1493;11355
1497;11357
1490;11359
1498;11362
1515;11364
1516;11367
1500;11369
1488;11372
1474;11374
1460;11377
1465;11379
1483;11382
1507;11384
1524;11386
1519;11389
1496;11392
1475;11395
1472;11397
1472;11400
1471;11402
1470;11405
1466;11407
1461;11410
1459;11412
1460;11414
1469;11417
1480;11419
1483;11422
1489;11424
1489;11427
1491;11429
1489;11432
1491;11435
1504;11438
1510;11440
1509;11442
1503;11445
1497;11447
1490;11450
1492;11452
1502;11455
1512;11457
1508;11460
1500;11462
1490;11465
1479;11467
1469;11470
1463;11472
1462;11474
1469;11478
1480;11480
1495;11483
1502;11485
1493;11488
1481;11490
1470;11493
1464;11495
1469;11498
1475;11500
1477;11502
1473;11505
1467;11507
1458;11510
1449;11512
1452;11515
1463;11517
1476;11521
1482;11523
1489;11526
1491;11528
1479;11530
1466;11533
1459;11535
1466;11538
1466;11540
1462;11543
1460;11545
1458;11548
1459;11550
1456;11553
1451;11555
1453;11558
1454;11560
1455;11563
1456;11566
1449;11568
1450;11571
1451;11573
1448;11576
1442;11578
1441;11581
1461;11583
1477;11586
1476;11588
1460;11590
1441;11593
1445;11595
1464;11598
1472;11600
1473;11603
1473;11606
1468;11609
1460;11611
1461;11614
1462;11616
1466;11618
1469;11621
1464;11623
1460;11626
1468;11628
1465;11631
1454;11633
1452;11636
1458;11638
1463;11641
1466;11643
1466;11646
1468;11649
1471;11651
1473;11654
1467;11656
1468;11659
1465;11661
1461;11664
1451;11666
1440;11669
1432;11671
1433;11674
1451;11676
1469;11678
1468;11681
1462;11683
1457;11686
1461;11688
1472;11692
1473;11694
1473;11697
1477;11699
1476;11702
1474;11704
1458;11706
1456;11709
1466;11711
1465;11714
1464;11716
1468;11719
1464;11721
1458;11724
1456;11726
1455;11729
1452;11731
1454;11734
1460;11737
1476;11739
1480;11742
1472;11744
1462;11747
1455;11749
1462;11752
1481;11754
1506;11757
1520;11759
1507;11762
1497;11764
1492;11766
1481;11769
1471;11771
1462;11774
1465;11777
1479;11780
1495;11782
1510;11785
1507;11787
1488;11790
1469;11792
1458;11794
1458;11797
1458;11799
1459;11802
1463;11804
1466;11807
1470;11809
1472;11812
1472;11814
1484;11817
1495;11820
1496;11822
1488;11825
1475;11827
1467;11830
1462;11832
1460;11835
1464;11837
1467;11840
1469;11842
1479;11845
1492;11847
1500;11849
1506;11852
1504;11854
1502;11857
1501;11859
1495;11863
1486;11865
1475;11868
1471;11870
1472;11873
1478;11875
1489;11878
1499;11880
1504;11882
1504;11885
1499;11887
1489;11890
1478;11892
1467;11895
1466;11897
1474;11900
1481;11902
1487;11906
1489;11908
1484;11910
1473;11913
1470;11915
1473;11918
1476;11920
1474;11923
1478;11925
1476;11928
1471;11930
1472;11933
1481;11935
1496;11937
1496;11940
1492;11942
1491;11945
1487;11948
1482;11951
1474;11953
1469;11956
1472;11958
1481;11961
1493;11963
1500;11966
1501;11968
1495;11970
1484;11973
1488;11975
1502;11978
1511;11980
1517;11983
1532;11985
1536;11988
1513;11991
1480;11994
1467;11996
1470;11998
1472;12001
1475;12003
1472;12006
1467;12008
1460;12011
1459;12013
1469;12016
1477;12018
1477;12021
1482;12023
1486;12025
1480;12028
1476;12030
1469;12034
1472;12036
1478;12039
1482;12041
1490;12044
1497;12046
1492;12049
1482;12051
1469;12054
1469;12056
1495;12058
1516;12061
1519;12063
1517;12066
1509;12068
1498;12071
1486;12073
1480;12077
1486;12079
1497;12082
1497;12084
1505;12086
1508;12089
1491;12091
1469;12094
1454;12096
1450;12099
1454;12101
1469;12104
1476;12106
1475;12109
1472;12111
1465;12113
1464;12116
1465;12119
1470;12122
1481;12124
1499;12127
1507;12129
1502;12132
1492;12134
1489;12137
1490;12139
1492;12142
1499;12144
1504;12146
1506;12149
1504;12151
1501;12154
1502;12156
1505;12160
1504;12162
1499;12165
1498;12167
1494;12170
1496;12172
1494;12174
1492;12177
1491;12179
1491;12182
1489;12184
1477;12187
1461;12189
1450;12192
1450;12194
1464;12197
1485;12199
1508;12201
1524;12205
1527;12207
1527;12210
1520;12212
1513;12215
1507;12217
1509;12220
1517;12222
1517;12225
1514;12227
1510;12230
1506;12232
1503;12234
1505;12237
1514;12239
1518;12242
1515;12244
1508;12248
1506;12250
1497;12253
1485;12255
1486;12258
1493;12260
1499;12262
1506;12265
1509;12267
1516;12270
1519;12272
1510;12275
1496;12277
1488;12280
1485;12282
1485;12285
1480;12288
1473;12290
1465;12293
1460;12295
1462;12298
1466;12300
1472;12303
1477;12305
1474;12308
1479;12310
1487;12313
1496;12315
1501;12317
1498;12320
1493;12322
1499;12325
1502;12327
1504;12331
1501;12333
1494;12336
1492;12338
1485;12341
1478;12343
1475;12346
1468;12348
1462;12350
1469;12353
1478;12355
1485;12358
1481;12360
1472;12363
1473;12365
1469;12368
1462;12370
1456;12374
1453;12376
1458;12378
1459;12381
1455;12383
1457;12386
1467;12388
1476;12391
1469;12393
1462;12396
1466;12398
1473;12401
1480;12403
1484;12405
1477;12408
1473;12410
1470;12413
1462;12416
1457;12419
1455;12421
1461;12424
1470;12426
1476;12429
1483;12431
1495;12434
1503;12436
1497;12438
1492;12441
1502;12443
1510;12446
1498;12448
1489;12451
1484;12453
1476;12456
1467;12459
1460;12462
1457;12464
1456;12466
1454;12469
1454;12471
1456;12474
1466;12476
1484;12479
1496;12481
1493;12484
1486;12486
1488;12489
1492;12491
1493;12493
1492;12496
1498;12498
1500;12502
1498;12504
1490;12507
1493;12509
1497;12512
1502;12514
1506;12517
1517;12519
1517;12522
1517;12524
1513;12526
1504;12529
1501;12531
1498;12534
1494;12536
1494;12539
1496;12541
1501;12545
1499;12547
1494;12550
1491;12552
1495;12554
1503;12557
1513;12559
1519;12562
1525;12564
1519;12567
1508;12569
1508;12572
1507;12574
1505;12577
1500;12579
1504;12581
1503;12584
1500;12587
1494;12590
1486;12592
1484;12595
1482;12597
1495;12600
1510;12602
1514;12605
1523;12607
1525;12609
1516;12612
1510;12614
1512;12617
1517;12619
1517;12622
1518;12624
1510;12627
1501;12630
1502;12633
1515;12635
1527;12638
1527;12640
1528;12642
1530;12645
1531;12647
1516;12650
1505;12652
1496;12655
1502;12657
1508;12660
1511;12662
1517;12665
1509;12667
1497;12669
1492;12673
1492;12675
1499;12678
1511;12680
1521;12683
1534;12685
1530;12688
1509;12690
1486;12693
1476;12695
1478;12697
1487;12700
1499;12702
1514;12705
1519;12707
1513;12710
1505;12712
1500;12716
1499;12718
1495;12721
1495;12723
1504;12726
1505;12728
1503;12730
1505;12733
1502;12735
1505;12738
1505;12740
1512;12743
1521;12745
1526;12748
1524;12750
1518;12753
1510;12755
1503;12758
1501;12761
1493;12763
1498;12766
1501;12768
1483;12771
1477;12773
1484;12776
1494;12778
1500;12781
1506;12783
1496;12785
1479;12788
1470;12790
1468;12793
1470;12795
1475;12798
1478;12801
1483;12804
1484;12806
1479;12809
1474;12811
1465;12814
1464;12816
1468;12818
1469;12821
1469;12823
1479;12826
1488;12828
1494;12831
1497;12833
1481;12836
1473;12838
1477;12841
1483;12844
1483;12846
1470;12849
1453;12851
1453;12854
1462;12856
1484;12859
1497;12861
1509;12864
1505;12866
1509;12869
1517;12871
1502;12873
1484;12876
1483;12878
1480;12881
1476;12883
1471;12887
1460;12889
1461;12892
1472;12894
1480;12897
1484;12899
1480;12901
1477;12904
1474;12906
1470;12909
1467;12911
1471;12914
1479;12916
1488;12919
1497;12921
1501;12924
1500;12926
1484;12929
1477;12932
1467;12934
1458;12937
1463;12939
1468;12942
1472;12944
1470;12947
1466;12949
1462;12952
1458;12954
1457;12957
1463;12959
1475;12961
1480;12964
1483;12966
1477;12969
1470;12972
1468;12975
1470;12977
1475;12980
1465;12982
1480;12985
1487;12987
1475;12989
1461;12992
1460;12994
1465;12997
1478;12999
1493;13002
1509;13004
1508;13007
1484;13009
1467;13012
1462;13015
1464;13017
1469;13020
1472;13022
1480;13025
1493;13027
1486;13030
1471;13032
1455;13035
1459;13037
1471;13040
1480;13042
1483;13044
1475;13047
1465;13049
1466;13052
1468;13054
1484;13058
1494;13060
1491;13063
1491;13065
1492;13068
1493;13070
1489;13073
1484;13075
1490;13077
1502;13080
1501;13082
1504;13085
1505;13087
1499;13090
1495;13092
1481;13095
1485;13097
1490;13101
1488;13103
1497;13105
1502;13108
1498;13110
1492;13113
1492;13115
1497;13118
1513;13120
1528;13123
1525;13125
1518;13128
1507;13130
1491;13132
1479;13135
1481;13137
1488;13140
1491;13143
1491;13146
1485;13148
1483;13151
1481;13153
1480;13156
1482;13158
1482;13161
1483;13163
1485;13165
1485;13168
1489;13170
1491;13173
1485;13175
1481;13178
1491;13180
1505;13184
1509;13186
1506;13189
1497;13191
1490;13193
1486;13196
1482;13198
1478;13201
1483;13203
1488;13206
1487;13208
1479;13211
1474;13213
1476;13216
1492;13218
1512;13220
1521;13223
1520;13225
1511;13229
1500;13231
1494;13234
1496;13236
1501;13239
1505;13241
1504;13244
1503;13246
1499;13249
1494;13251
1495;13253
1495;13256
1498;13258
1504;13261
1507;13263
1510;13266
1510;13268
1513;13272
1518;13274
1530;13277
1544;13279
1555;13281
1548;13284
1534;13286
1514;13289
1505;13291
1501;13294
1498;13296
1496;13299
1497;13301
1506;13304
1506;13306
1500;13308
1494;13312
1490;13314
1494;13317
1506;13319
1514;13322
1518;13324
1520;13327
1526;13329
1528;13332
1539;13334
1532;13336
1518;13339
1513;13341
1518;13344
1519;13346
1516;13349
1509;13351
1511;13355
1523;13357
1526;13360
1526;13362
1530;13365
1528;13367
1519;13369
1511;13372
1505;13374
1507;13377
1516;13379
1525;13382
1532;13384
1525;13387
1511;13389
1512;13392
1518;13394
1519;13396
1516;13400
1511;13402
1509;13405
1508;13407
1508;13410
1504;13412
1498;13415
1500;13417
1520;13420
1532;13422
1531;13424
1516;13427
1503;13429
1496;13432
1491;13434
1495;13437
1514;13440
1528;13443
1533;13445
1517;13448
1510;13450
1514;13452
1505;13455
1499;13457
1500;13460
1500;13462
1503;13465
1500;13467
1494;13470
1492;13472
1492;13475
1493;13477
1502;13480
1512;13483
1517;13485
1515;13488
1507;13490
1498;13493
1492;13495
1498;13498
1508;13500
1516;13503
1522;13505
1531;13508
1520;13510
1512;13512
1511;13515
1515;13517
1521;13520
1525;13522
1521;13526
1505;13528
1491;13531
1488;13533
1496;13536
1510;13538
1512;13540
1510;13543
1513;13545
1508;13548
1492;13550
1476;13553
1469;13555
1490;13558
1510;13560
1519;13563
1508;13565
1498;13569
1491;13571
1489;13573
1491;13576
1500;13578
1504;13581
1502;13583
1502;13586
1504;13588
1508;13591
1509;13593
1502;13596
1495;13598
1495;13600
1493;13603
1488;13605
1493;13608
1498;13611
1501;13614
1506;13616
1521;13619
1527;13621
1519;13624
1511;13626
1506;13628
1499;13631
1492;13633
1486;13636
1488;13638
1487;13641
1489;13643
1496;13646
1507;13648
1513;13651
1506;13654
1512;13657
1519;13659
1507;13661
1490;13664
1478;13666
1467;13669
1459;13671
1452;13674
1450;13676
1453;13679
1462;13681
1478;13684
1493;13686
1501;13688
1500;13691
1488;13693
1481;13697
1487;13699
1491;13702
1492;13704
1494;13707
1498;13709
1513;13712
1527;13714
1530;13716
1516;13719
1497;13721
1498;13724
1498;13726
1491;13729
1487;13731
1479;13734
1477;13736
1488;13740
1493;13742
1493;13744
1492;13747
1488;13749
1486;13752
1482;13754
1484;13757
1486;13759
1486;13762
1486;13764
1482;13767
1476;13769
1472;13772
1471;13774
1472;13776
1481;13779
1490;13782
1492;13785
1488;13787
1482;13790
1476;13792
1473;13795
1476;13797
1483;13800
1492;13802
1500;13804
1510;13807
1507;13809
1497;13812
1489;13814
1484;13817
1485;13819
1485;13822
1484;13825
1481;13828
1473;13830
1469;13832
1467;13835
1473;13837
1485;13840
1497;13842
1500;13845
1496;13847
1489;13850
1481;13852
1471;13855
1467;13857
1471;13860
1478;13862
1486;13864
1486;13868
1484;13870
1477;13873
1471;13875
1474;13878
1488;13880
1499;13883
1501;13885
1493;13888
1483;13890
1474;13892
1470;13895
1478;13897
1486;13900
1490;13902
1494;13905
1493;13907
1488;13911
1486;13913
1491;13916
1494;13918
1489;13920
1485;13923
1486;13925
1485;13928
1480;13930
1475;13933
1470;13935
1471;13938
1480;13940
1489;13943
1492;13945
1487;13947
1477;13950
1475;13953
1477;13956
1480;13958
1482;13961
1483;13963
1488;13966
1494;13968
1494;13971
1488;13973
1487;13976
1497;13978
1499;13980
1505;13983
1502;13985
1488;13988
1472;13990
1469;13993
1474;13996
1486;13999
1495;14001
1500;14004
1501;14006
1495;14008
1492;14011
1491;14013
1492;14016
1497;14018
1502;14021
1503;14023
1500;14026
1493;14028
1487;14031
1482;14033
1482;14035
1487;14039
1498;14041
1513;14044
1528;14046
1543;14049
1540;14051
1517;14054
1499;14056
1498;14059
1497;14061
1498;14064
1498;14066
1495;14068
1490;14071
1485;14073
1480;14076
1479;14078
1482;14082
1486;14084
1486;14087
1493;14089
1500;14092
1504;14094
1497;14096
1494;14099
1497;14101
1505;14104
1508;14106
1513;14109
1521;14111
1514;14114
1504;14116
1503;14119
1498;14121
1497;14124
1505;14127
1512;14129
1511;14132
1507;14134
1510;14137
1511;14139
1506;14142
1498;14144
1493;14147
1490;14149
1491;14152
1491;14154
1492;14156
1496;14159
1499;14161
1502;14164
1508;14167
1503;14170
1494;14172
1492;14175
1496;14177
1511;14180
1516;14182
1508;14184
1501;14187
1492;14189
1489;14192
1482;14194
1479;14197
1482;14199
1488;14202
1503;14204
1516;14208
1530;14210
1530;14212
1520;14215
1505;14217
1500;14220
1500;14222
1498;14225
1497;14227
1483;14230
1471;14232
1468;14235
1477;14237
1482;14240
1481;14242
1479;14244
1484;14247
1486;14249
1496;14253
1499;14255
1498;14258
1488;14260
1478;14263
1472;14265
1472;14268
1469;14270
1465;14272
1454;14275
1470;14277
1497;14280
1507;14282
1500;14285
1481;14287
1464;14290
1463;14292
1466;14296
1470;14298
1478;14300
1485;14303
1494;14305
1484;14308
1474;14310
1473;14313
1483;14315
1489;14318
1502;14320
1503;14323
1495;14325
1478;14328
1462;14330
1462;14332
1464;14336
1480;14338
1501;14341
1515;14343
1515;14346
1501;14348
1498;14351
1490;14353
1484;14356
1481;14358
1478;14360
1472;14363
1480;14365
1476;14368
1463;14370
1457;14373
1464;14375
1488;14379
1511;14381
1522;14384
1521;14386
1514;14388
1508;14391
1499;14393
1486;14396
1473;14398
1476;14401
1484;14403
1489;14406
1483;14408
1480;14411
1473;14413
1467;14416
1471;14418
1480;14420
1498;14424
1495;14426
1484;14429
1472;14431
1475;14434
1480;14436
1493;14439
1507;14441
1513;14444
1511;14446
1501;14448
1495;14451
1490;14453
1481;14456
1485;14458
1490;14461
1490;14464
1486;14467
1484;14469
1484;14472
1481;14474
1479;14476
1480;14479
1480;14481
1484;14484
1494;14486
1494;14489
1489;14491
1491;14494
1484;14496
1471;14499
1483;14501
1498;14504
1499;14507
1496;14509
1498;14512
1487;14514
1473;14517
1469;14519
1476;14522
1496;14524
1513;14527
1512;14529
1499;14532
1493;14534
1490;14536
1488;14539
1477;14541
1466;14544
1458;14546
1455;14550
1450;14552
1454;14555
1459;14557
1458;14560
1457;14562
1467;14564
1476;14567
1479;14569
1475;14572
1466;14574
1459;14577
1461;14579
1458;14582
1450;14584
1446;14587
1449;14589
1459;14592
1485;14595
1519;14597
1540;14600
1531;14602
1507;14605
1484;14607
1463;14610
1453;14612
1453;14615
1464;14617
1475;14620
1480;14622
1479;14624
1477;14627
1465;14629
1460;14632
1456;14635
1459;14638
1474;14640
1494;14643
1501;14645
1496;14648
1484;14650
1469;14652
1462;14655
1461;14657
1481;14660
1506;14662
1512;14665
1510;14667
1505;14670
1498;14672
1484;14675
1473;14678
1471;14680
1471;14683
1480;14685
1487;14688
1494;14690
1504;14693
1507;14695
1517;14698
1518;14700
1501;14703
1490;14705
1485;14708
1482;14710
1488;14712
1484;14715
1474;14717
1471;14721
1472;14723
1479;14726
1481;14728
1482;14731
1484;14733
1481;14736
1484;14738
1492;14740
1488;14743
1497;14745
1501;14748
1498;14750
1500;14753
1495;14755
1487;14758
1489;14760
1499;14764
1528;14766
1554;14768
1554;14771
1528;14773
1502;14776
1494;14778
1489;14781
1481;14783
1476;14786
1473;14788
1481;14791
1491;14793
1505;14795
1514;14798
1512;14800
1503;14803
1504;14806
1503;14809
1502;14811
1489;14814
1482;14816
1491;14819
1508;14821
1514;14824
1501;14826
1482;14828
1469;14831
1474;14833
1490;14836
1501;14838
1501;14841
1501;14843
1500;14846
1504;14849
1504;14852
1500;14854
1499;14856
1508;14859
1511;14861
1503;14864
1489;14866
1477;14869
1467;14871
1462;14874
1461;14876
1469;14879
1481;14881
1495;14883
1497;14886
1504;14888
1503;14892
1493;14894
1484;14897
1481;14899
1471;14902
1467;14904
1468;14907
1475;14909
1484;14912
1492;14914
1487;14916
1518;14919
1553;14921
1559;14924
1539;14926
1509;14929
1486;14931
1472;14935
1467;14937
1469;14940
1472;14942
1477;14944
1483;14947
1489;14949
1495;14952
1500;14954
1495;14957
1485;14959
1480;14962
1481;14964
1482;14967
1478;14969
1474;14971
1474;14974
1489;14977
1507;14980
1520;14982
1517;14985
1500;14987
1481;14990
1474;14992
1469;14995
1467;14997
1470;14999
1479;15002
1489;15004
1494;15007
1487;15009
1479;15012
1473;15014
1474;15017
1478;15020
1480;15023
1482;15025
1479;15028
1466;15030
1458;15032
1456;15035
1458;15037
1467;15040
1474;15042
1482;15045
1486;15047
1476;15050
1464;15052
1464;15055
1471;15057
1478;15059
1491;15063
1503;15065
1508;15068
1502;15070
1496;15073
1498;15075
1492;15078
1479;15080
1469;15083
1463;15085
1459;15087
1459;15090
1459;15092
1461;15095
1470;15097
1482;15100
1488;15102
1491;15106
1489;15108
1489;15111
1496;15113
1494;15116
1491;15118
1494;15120
1491;15123
1479;15125
1469;15128
1462;15130
1462;15133
1467;15135
1482;15138
1502;15140
1530;15143
1549;15145
1549;15148
1530;15151
1510;15153
1500;15156
1497;15158
1502;15161
1497;15163
1490;15166
1478;15168
1475;15171
1478;15173
1464;15175
1450;15178
1462;15180
1484;15183
1491;15185
1490;15188
1486;15191
1484;15194
1485;15196
1493;15199
1505;15201
1509;15203
1513;15206
1506;15208
1494;15211
1487;15213
1487;15216
1494;15218
1500;15221
1511;15223
1517;15226
1517;15228
1514;15232
1509;15234
1504;15236
1499;15239
1496;15241
1493;15244
1491;15246
1486;15249
1483;15251
1481;15254
1477;15256
1486;15259
1499;15261
1507;15263
1510;15266
1506;15268
1495;15271
1489;15273
1493;15277
1505;15279
1517;15282
1518;15284
1505;15287
1483;15289
1475;15291
1473;15294
1475;15296
1482;15299
1485;15301
1486;15304
1489;15306
1497;15309
1503;15311
1496;15314
1489;15316
1486;15320
1487;15322
1491;15324
1493;15327
1490;15329
1486;15332
1482;15334
1478;15337
1478;15339
1478;15342
1479;15344
1480;15347
1482;15349
1483;15351
1481;15354
1480;15356
1481;15360
1482;15362
1481;15365
1477;15367
1470;15370
1467;15372
1466;15375
1467;15377
1472;15379
1473;15382
1472;15384
1469;15387
1464;15389
1461;15392
1462;15394
1468;15397
1484;15399
1501;15403
1525;15405
1532;15408
1517;15410
1500;15412
1496;15415
1496;15417
1495;15420
1495;15422
1492;15425
1487;15427
1476;15430
1466;15432
1463;15435
1469;15437
1482;15439
1495;15442
1504;15444
1507;15448
1504;15450
1503;15453
1501;15455
1509;15458
1529;15460
1534;15463
1529;15465
1521;15467
1514;15470
1509;15472
1505;15475
1496;15477
1488;15480
1483;15482
1482;15485
1478;15488
1473;15491
1469;15493
1467;15496
1470;15498
1475;15500
1478;15503
1483;15505
1483;15508
1478;15510
1475;15513
1474;15515
