mV;time
0;0
1555;2
1547;4
1549;7
1523;9
1507;11
1527;13
1555;16
1562;18
1551;20
1502;23
1498;25
1510;27
1516;30
1492;32
1498;34
1492;36
1510;39
1553;41
1561;44
1551;47
1541;49
1526;51
1507;54
1505;56
1512;58
1510;61
1502;63
1491;65
1470;67
1494;70
1519;72
1538;74
1535;77
1528;79
1518;81
1514;84
1518;87
1494;89
1470;91
1450;94
1482;96
1501;98
1536;101
1552;103
1554;105
1538;108
1525;110
1517;112
1488;115
1477;117
1509;120
1528;122
1537;124
1535;128
1529;130
1512;132
1505;135
1513;137
1513;139
1502;142
1509;144
1488;146
1476;149
1500;151
1533;153
1532;156
1531;158
1533;161
1517;163
1513;165
1488;168
1499;171
1519;173
1539;176
1536;178
1505;180
1492;183
1520;185
1536;187
1536;190
1536;192
1532;194
1531;197
1530;199
1526;202
1516;204
1499;206
1485;209
1488;211
1502;214
1513;217
1504;219
1505;221
1510;224
1518;226
1534;228
1549;231
1544;233
1524;235
1525;238
1507;240
1466;243
1473;245
1496;247
1529;250
1555;252
1564;254
1562;258
1563;260
1564;262
1549;265
1501;267
1468;269
1519;272
1550;274
1563;277
1563;279
1564;281
1563;284
1560;286
1549;288
1538;291
1529;293
1527;295
1516;299
1504;301
1504;303
1488;306
1471;308
1495;310
1549;313
1532;315
1504;318
1528;320
1552;322
1554;325
1526;327
1488;329
1511;332
1547;334
1553;336
1539;339
1504;342
1502;344
1528;347
1532;349
1524;351
1508;354
1521;356
1543;359
1553;361
1554;363
1537;366
1507;368
1506;370
1517;373
1504;375
1506;377
1512;380
1516;382
1512;385
1525;388
1537;390
1537;393
1515;395
1519;397
1538;400
1552;402
1547;404
1535;407
1523;409
1513;411
1504;414
1500;416
1491;418
1491;421
1500;423
1513;425
1488;429
1467;431
1487;434
1473;436
1466;438
1482;441
1511;443
1524;445
1524;448
1518;450
1509;452
1501;455
1493;457
1481;459
1459;462
1451;464
1448;466
1467;470
1481;472
1486;475
1490;477
1495;479
1490;482
1480;484
1462;486
1469;489
1480;491
1480;493
1473;496
1472;498
1472;500
1470;503
1457;505
1452;508
1447;510
1450;513
1454;516
1445;518
1422;520
1452;523
1479;525
1491;527
1461;530
1448;532
1451;534
1448;537
1443;539
1451;541
1460;544
1465;546
1445;549
1445;551
1462;553
1452;557
1439;559
1431;561
1432;564
1418;566
1417;568
1434;571
1439;573
1433;575
1442;578
1465;580
1464;582
1447;585
1443;587
1437;590
1427;592
1414;594
1407;598
1414;600
1430;602
1418;605
1410;607
1437;609
1445;612
1434;614
1426;616
1425;619
1443;621
1442;624
1437;626
1443;628
1436;631
1428;633
1427;635
1431;638
1436;641
1435;643
1432;646
1436;648
1438;650
1437;653
1427;655
1435;657
1448;660
1441;662
1438;665
1452;667
1472;669
1470;672
1451;674
1449;676
1450;679
1451;681
1449;684
1461;687
1464;689
1453;691
1442;694
1456;696
1463;699
1462;701
1457;703
1456;706
1456;708
1459;710
1466;713
1478;715
1477;717
1471;720
1449;722
1462;724
1481;728
1473;730
1454;732
1447;735
1472;737
1477;740
1471;742
1482;744
1475;747
1469;749
1467;751
1459;754
1462;756
1470;758
1475;761
1479;763
1496;765
1495;769
1487;771
1477;773
1461;776
1458;778
1472;781
1475;783
1474;785
1480;788
1485;790
1486;792
1472;795
1482;797
1491;799
1497;802
1513;804
1529;806
1525;809
1502;812
1486;815
1470;817
1466;819
1469;822
1477;824
1483;826
1495;829
1514;831
1505;833
1513;836
1518;838
1508;840
1496;843
1494;845
1488;847
1480;850
1476;852
1480;856
1505;858
1530;860
1550;863
1553;865
1533;867
1514;870
1491;872
1465;874
1466;877
1478;879
1488;881
1514;884
1526;886
1527;888
1536;891
1534;893
1514;897
1499;899
1492;901
1497;904
1512;906
1526;908
1522;911
1516;913
1505;915
1496;918
1496;920
1489;922
1504;925
1509;927
1513;930
1521;932
1515;934
1504;937
1511;940
1523;942
1524;945
1526;947
1533;949
1548;952
1536;954
1525;956
1529;959
1519;961
1505;963
1509;966
1510;968
1509;971
1511;973
1509;975
1508;978
1503;980
1513;983
1526;986
1543;988
1539;990
1515;993
1515;995
1534;997
1533;1000
1521;1002
1515;1005
1503;1007
1504;1009
1515;1012
1549;1014
1561;1017
1546;1019
1545;1021
1538;1025
1526;1027
1512;1030
1516;1032
1519;1034
1522;1037
1531;1039
1526;1042
1517;1044
1508;1047
1531;1049
1555;1051
1565;1054
1562;1056
1550;1059
1529;1061
1517;1063
1518;1067
1519;1069
1520;1072
1517;1074
1506;1076
1504;1079
1506;1081
1509;1084
1510;1086
1519;1088
1516;1091
1533;1093
1536;1096
1537;1098
1544;1100
1546;1103
1549;1105
1547;1108
1535;1111
1514;1113
1496;1116
1490;1118
1492;1121
1504;1123
1530;1125
1540;1128
1545;1130
1540;1133
1534;1135
1536;1137
1529;1140
1518;1142
1514;1145
1519;1147
1515;1150
1507;1153
1502;1155
1499;1158
1512;1160
1533;1163
1562;1165
1576;1167
1555;1170
1545;1172
1535;1175
1522;1177
1511;1179
1520;1182
1536;1184
1541;1187
1535;1189
1526;1191
1523;1195
1535;1197
1539;1200
1530;1202
1515;1204
1511;1207
1509;1209
1499;1212
1488;1214
1487;1216
1505;1219
1547;1221
1557;1224
1534;1226
1515;1229
1498;1231
1484;1233
1471;1236
1485;1239
1501;1242
1512;1244
1504;1246
1488;1249
1486;1251
1502;1254
1514;1256
1543;1258
1539;1261
1508;1263
1502;1266
1490;1268
1481;1270
1488;1273
1494;1275
1501;1278
1493;1281
1494;1283
1507;1286
1518;1288
1512;1291
1497;1293
1487;1295
1482;1298
1476;1300
1474;1303
1478;1305
1479;1308
1481;1310
1485;1312
1482;1315
1482;1317
1499;1320
1508;1323
1507;1325
1490;1328
1479;1330
1488;1333
1493;1335
1484;1337
1482;1340
1495;1342
1506;1345
1523;1347
1535;1349
1517;1352
1499;1354
1491;1357
1496;1359
1495;1361
1482;1364
1475;1367
1468;1370
1465;1372
1464;1374
1469;1377
1478;1379
1491;1382
1496;1384
1514;1386
1514;1389
1502;1391
1497;1394
1497;1396
1508;1398
1507;1401
1492;1403
1474;1406
1471;1409
1469;1412
1482;1414
1499;1416
1523;1419
1515;1421
1492;1424
1480;1426
1469;1428
1455;1431
1451;1433
1457;1436
1467;1438
1477;1440
1485;1443
1483;1445
1479;1448
1473;1451
1475;1453
1479;1456
1495;1458
1509;1461
1517;1463
1505;1465
1488;1468
1492;1470
1494;1473
1489;1475
1485;1477
1485;1480
1481;1482
1482;1485
1481;1487
1479;1489
1472;1492
1470;1495
1494;1498
1514;1500
1516;1502
1514;1505
1516;1507
1505;1510
1485;1512
1471;1515
1459;1517
1456;1519
1452;1522
1455;1524
1465;1527
1463;1529
1469;1531
1488;1534
1498;1537
1494;1540
1483;1542
1471;1544
1461;1547
1452;1549
1449;1552
1460;1554
1475;1556
1495;1559
1489;1561
1466;1564
1453;1566
1460;1568
1470;1571
1479;1573
1477;1576
1481;1579
1485;1581
1475;1584
1465;1586
1472;1589
1483;1591
1475;1594
1464;1596
1458;1598
1467;1601
1493;1603
1509;1606
1506;1608
1485;1610
1463;1613
1452;1615
1450;1618
1446;1620
1454;1623
1451;1626
1453;1628
1449;1631
1447;1633
1447;1635
1450;1638
1448;1640
1451;1643
1464;1645
1472;1647
1478;1650
1472;1652
1463;1655
1463;1657
1464;1659
1458;1662
1452;1665
1457;1668
1462;1670
1465;1672
1472;1675
1465;1677
1488;1680
1500;1682
1492;1684
1479;1687
1460;1689
1448;1692
1442;1694
1438;1696
1443;1699
1445;1701
1453;1704
1468;1707
1480;1709
1474;1712
1465;1714
1454;1717
1445;1719
1439;1722
1435;1724
1437;1726
1442;1729
1445;1731
1443;1734
1437;1736
1436;1738
1436;1741
1440;1743
1443;1746
1461;1748
1491;1751
1503;1754
1498;1756
1480;1759
1462;1761
1444;1763
1430;1766
1416;1768
1421;1771
1438;1773
1466;1775
1495;1778
1491;1780
1474;1783
1459;1785
1451;1787
1453;1790
1456;1793
1453;1796
1467;1798
1478;1800
1473;1803
1467;1805
1456;1808
1440;1810
1426;1812
1417;1815
1420;1817
1436;1820
1442;1822
1443;1825
1451;1827
1463;1829
1479;1832
1483;1835
1471;1838
1463;1840
1462;1842
1455;1845
1450;1847
1447;1850
1446;1852
1460;1854
1468;1857
1482;1859
1484;1862
1470;1864
1458;1866
1447;1869
1436;1871
1440;1874
1447;1876
1453;1879
1454;1882
1454;1884
1451;1887
1446;1889
1441;1891
1436;1894
1436;1896
1450;1899
1459;1901
1461;1903
1460;1906
1456;1908
1450;1911
1448;1913
1448;1916
1449;1918
1462;1921
1475;1924
1501;1926
1495;1929
1478;1931
1470;1933
1471;1936
1465;1938
1462;1941
1452;1943
1447;1945
1447;1948
1444;1950
1444;1953
1443;1955
1446;1957
1460;1960
1467;1963
1481;1966
1477;1968
1462;1970
1456;1973
1467;1975
1489;1978
1487;1980
1475;1982
1470;1985
1466;1987
1463;1990
1462;1992
1461;1994
1461;1997
1461;1999
1462;2002
1469;2004
1475;2007
1478;2010
1476;2012
1494;2015
1518;2017
1518;2020
1506;2022
1486;2024
1466;2027
1457;2029
1453;2032
1453;2034
1450;2036
1457;2039
1461;2041
1465;2044
1467;2046
1464;2049
1456;2052
1456;2054
1459;2057
1483;2059
1498;2061
1504;2064
1501;2066
1483;2069
1468;2071
1469;2073
1469;2076
1490;2078
1507;2081
1526;2083
1521;2085
1509;2088
1503;2091
1490;2094
1481;2096
1481;2098
1477;2101
1473;2103
1479;2106
1484;2108
1485;2110
1483;2113
1489;2115
1487;2118
1488;2120
1490;2123
1493;2125
1492;2127
1488;2130
1485;2132
1478;2136
1476;2138
1480;2140
1482;2143
1481;2145
1483;2148
1486;2150
1489;2152
1487;2155
1481;2157
1477;2160
1485;2162
1498;2164
1516;2167
1527;2169
1523;2172
1511;2174
1506;2177
1501;2180
1487;2182
1468;2185
1480;2187
1491;2189
1483;2192
1475;2194
1491;2197
1498;2199
1489;2201
1486;2204
1492;2206
1496;2209
1485;2211
1479;2214
1489;2216
1509;2219
1526;2222
1537;2224
1525;2227
1496;2229
1478;2231
1469;2234
1460;2236
1473;2239
1486;2241
1486;2243
1492;2246
1506;2248
1502;2251
1505;2253
1514;2255
1511;2258
1499;2260
1494;2264
1491;2266
1479;2268
1468;2271
1466;2273
1464;2276
1469;2278
1491;2280
1504;2283
1502;2285
1498;2288
1491;2290
1492;2293
1499;2295
1501;2297
1497;2300
1487;2302
1486;2306
1501;2308
1508;2310
1493;2313
1502;2315
1516;2318
1520;2320
1509;2322
1494;2325
1476;2327
1469;2330
1462;2332
1470;2334
1480;2337
1492;2339
1496;2342
1498;2344
1495;2347
1480;2350
1473;2352
1462;2355
1472;2357
1490;2359
1496;2362
1499;2364
1508;2367
1495;2369
1491;2372
1488;2374
1471;2376
1462;2379
1461;2381
1466;2384
1477;2386
1486;2388
1501;2392
1508;2394
1511;2397
1514;2399
1503;2401
1486;2404
1491;2406
1500;2409
1495;2411
1489;2413
1483;2416
1473;2418
1465;2421
1456;2423
1471;2425
1487;2428
1489;2430
1484;2434
1485;2436
1491;2438
1493;2441
1492;2443
1484;2446
1471;2448
1471;2451
1476;2453
1477;2455
1478;2458
1484;2460
1493;2463
1512;2465
1522;2467
1504;2470
1501;2472
1520;2476
1518;2478
1495;2480
1478;2483
1465;2485
1463;2488
1462;2490
1464;2492
1469;2495
1473;2497
1480;2500
1487;2502
1490;2504
1485;2507
1482;2509
1480;2512
1478;2514
1474;2516
1474;2520
1484;2522
1472;2525
1486;2527
1498;2529
1480;2532
1467;2534
1480;2537
1497;2539
1490;2542
1480;2544
1484;2546
1488;2549
1485;2551
1482;2554
1476;2556
1473;2558
1474;2562
1484;2564
1475;2567
1498;2569
1528;2571
1516;2574
1496;2576
1488;2579
1488;2581
1485;2583
1484;2586
1484;2588
1478;2591
1468;2593
1459;2595
1461;2598
1472;2600
1473;2604
1473;2606
1482;2608
1485;2611
1480;2613
1477;2616
1475;2618
1485;2620
1497;2623
1500;2625
1497;2628
1487;2630
1487;2633
1483;2635
1480;2637
1487;2640
1496;2642
1486;2646
1477;2648
1469;2650
1466;2653
1466;2655
1476;2658
1495;2660
1487;2662
1508;2665
1525;2667
1511;2670
1496;2672
1482;2674
1481;2677
1493;2679
1500;2682
1492;2684
1488;2686
1482;2690
1475;2692
1477;2695
1488;2697
1497;2699
1494;2702
1483;2704
1488;2707
1501;2709
1509;2711
1500;2714
1495;2716
1501;2719
1509;2721
1499;2723
1492;2726
1497;2728
1492;2732
1482;2734
1479;2737
1487;2739
1501;2741
1500;2744
1496;2746
1497;2749
1489;2751
1479;2753
1479;2756
1481;2758
1482;2761
1484;2763
1489;2765
1505;2768
1512;2770
1518;2774
1511;2776
1496;2778
1497;2781
1510;2783
1516;2786
1505;2788
1499;2790
1491;2793
1478;2795
1468;2798
1481;2800
1487;2802
1498;2805
1502;2807
1500;2810
1500;2812
1502;2814
1497;2818
1492;2820
1486;2823
1478;2825
1476;2827
1473;2830
1469;2832
1472;2835
1481;2837
1496;2840
1509;2842
1507;2844
1506;2847
1506;2849
1501;2852
1491;2854
1485;2856
1485;2860
1487;2862
1500;2865
1514;2867
1510;2869
1510;2872
1515;2874
1509;2877
1499;2879
1490;2881
1489;2884
1486;2886
1485;2889
1488;2891
1486;2893
1493;2896
1511;2898
1511;2902
1516;2904
1534;2906
1523;2909
1517;2911
1519;2914
1511;2916
1505;2919
1511;2921
1511;2923
1515;2926
1519;2928
1520;2931
1520;2933
1512;2935
1492;2938
1482;2940
1479;2944
1472;2946
1468;2948
1461;2951
1453;2953
1478;2956
1499;2958
1500;2960
1498;2963
1497;2965
1495;2968
1483;2970
1478;2972
1479;2975
1478;2977
1489;2980
1503;2982
1519;2984
1524;2988
1519;2990
1521;2993
1520;2995
1521;2998
1537;3000
1538;3002
1539;3005
1543;3007
1533;3010
1520;3012
1492;3014
1486;3017
1487;3019
1490;3022
1493;3024
1503;3026
1507;3030
1507;3032
1509;3035
1509;3037
1514;3039
1521;3042
1533;3044
1534;3047
1536;3049
1540;3051
1531;3054
1514;3056
1508;3059
1514;3061
1512;3063
1504;3066
1496;3068
1493;3072
1491;3074
1488;3077
1482;3079
1489;3081
1496;3084
1502;3086
1502;3089
1497;3091
1493;3093
1500;3096
1513;3098
1533;3101
1538;3103
1520;3105
1509;3108
1501;3110
1491;3113
1490;3116
1491;3118
1500;3121
1500;3123
1502;3126
1503;3128
1498;3130
1496;3133
1497;3135
1496;3138
1501;3140
1517;3143
1526;3145
1534;3147
1545;3150
1523;3152
1498;3155
1487;3158
1486;3160
1488;3163
1487;3165
1492;3168
1491;3170
1479;3172
1482;3175
1516;3177
1554;3180
1560;3182
1547;3184
1535;3187
1536;3189
1534;3192
1526;3194
1504;3197
1484;3200
1474;3202
1465;3205
1458;3207
1458;3210
1466;3212
1482;3214
1495;3217
1503;3219
1501;3222
1507;3224
1519;3226
1527;3229
1526;3231
1507;3234
1507;3236
1514;3238
1514;3241
1507;3244
1507;3247
1502;3249
1492;3251
1494;3254
1504;3256
1513;3259
1505;3261
1512;3263
1516;3266
1506;3268
1498;3271
1494;3273
1482;3275
1486;3278
1504;3280
1520;3283
1522;3286
1516;3289
1508;3291
1502;3293
1496;3296
1484;3298
1480;3301
1480;3303
1481;3305
1485;3308
1484;3310
1478;3313
1475;3315
1478;3317
1493;3320
1512;3322
1526;3325
1527;3328
1501;3330
1483;3333
1480;3335
1481;3338
1484;3340
1490;3342
1492;3345
1490;3347
1491;3350
1485;3352
1487;3354
1503;3357
1521;3359
1527;3362
1519;3364
1511;3366
1501;3369
1483;3372
1469;3375
1459;3377
1461;3379
1473;3382
1484;3384
1489;3387
1488;3389
1487;3392
1478;3394
1469;3396
1468;3399
1472;3401
1468;3404
1479;3406
1496;3408
1502;3411
1499;3414
1487;3417
1477;3419
1482;3421
1485;3424
1491;3426
1498;3429
1508;3431
1517;3433
1526;3436
1525;3438
1519;3441
1495;3443
1475;3445
1466;3448
1465;3450
1476;3453
1476;3456
1475;3459
1474;3461
1484;3463
1498;3466
1487;3468
1470;3471
1456;3473
1451;3475
1455;3478
1466;3480
1484;3483
1501;3485
1502;3487
1486;3490
1480;3492
1485;3495
1492;3497
1494;3500
1485;3503
1483;3505
1504;3508
1517;3510
1521;3512
1491;3515
1469;3517
1463;3520
1463;3522
1456;3524
1470;3527
1507;3529
1512;3532
1507;3534
1495;3536
1482;3539
1477;3542
1478;3545
1476;3547
1480;3550
1479;3552
1476;3554
1470;3557
1466;3559
1469;3562
1469;3564
1468;3566
1475;3569
1481;3571
1480;3574
1474;3576
1469;3578
1473;3581
1478;3584
1475;3587
1474;3589
1474;3591
1488;3594
1497;3596
1509;3599
1518;3601
1513;3603
1495;3606
1483;3608
1475;3611
1468;3613
1472;3615
1484;3618
1500;3620
1497;3623
1486;3625
1481;3628
1472;3631
1484;3633
1486;3636
1488;3638
1493;3641
1498;3643
1500;3645
1492;3648
1492;3650
1485;3653
1468;3655
1454;3657
1457;3660
1460;3662
1463;3665
1468;3667
1470;3670
1470;3673
1491;3675
1500;3678
1520;3680
1525;3682
1508;3685
1479;3687
1465;3690
1459;3692
1451;3694
1441;3697
1435;3699
1440;3702
1454;3704
1483;3706
1518;3709
1525;3712
1512;3715
1504;3717
1495;3720
1487;3722
1476;3724
1467;3727
1458;3729
1444;3732
1433;3734
1446;3736
1472;3739
1491;3741
1501;3744
1499;3746
1492;3748
1484;3751
1490;3753
1502;3757
1510;3759
1516;3761
1510;3764
1509;3766
1492;3769
1465;3771
1456;3773
1459;3776
1472;3778
1484;3781
1494;3783
1502;3785
1504;3788
1494;3790
1489;3793
1483;3795
1470;3799
1465;3801
1474;3803
1520;3806
1552;3808
1544;3811
1503;3813
1478;3815
1478;3818
1487;3820
1483;3823
1468;3825
1467;3827
1462;3830
1455;3832
1455;3835
1462;3837
1475;3840
1474;3843
1478;3845
1499;3848
1524;3850
1528;3852
1501;3855
1470;3857
1460;3860
1461;3862
1461;3864
1469;3867
1473;3869
1476;3872
1475;3874
1461;3876
1456;3879
1470;3881
1488;3885
1492;3887
1490;3890
1492;3892
1520;3894
1542;3897
1526;3899
1492;3902
1483;3904
1482;3906
1476;3909
1473;3911
1472;3914
1472;3916
1476;3918
1491;3921
1498;3923
1492;3927
1487;3929
1483;3931
1476;3934
1464;3936
1459;3939
1461;3941
1474;3943
1488;3946
1498;3948
1495;3951
1497;3953
1504;3955
1498;3958
1502;3960
1519;3963
1521;3965
1504;3969
1490;3971
1498;3973
1520;3976
1529;3978
1514;3981
1487;3983
1471;3985
1465;3988
1462;3990
1456;3993
1459;3995
1475;3997
1504;4000
1526;4002
1530;4005
1530;4007
1527;4009
1513;4013
1489;4015
1474;4018
1459;4020
1462;4022
1475;4025
1496;4027
1501;4030
1498;4032
1499;4034
1490;4037
1486;4039
1507;4042
1518;4044
1505;4046
1486;4049
1475;4051
1466;4055
1457;4057
1466;4060
1517;4062
1539;4064
1529;4067
1509;4069
1491;4072
1482;4074
1478;4076
1483;4079
1498;4081
1503;4084
1502;4086
1502;4088
1501;4091
1497;4093
1482;4097
1470;4099
1467;4101
1484;4104
1503;4106
1512;4109
1502;4111
1491;4113
1488;4116
1481;4118
1480;4121
1490;4123
1506;4125
1510;4128
1507;4130
1504;4133
1505;4135
1502;4139
1494;4141
1484;4143
1479;4146
1488;4148
1504;4151
1503;4153
1489;4155
1478;4158
1472;4160
1470;4163
1477;4165
1485;4167
1489;4170
1490;4172
1491;4175
1488;4177
1487;4179
1494;4183
1497;4185
1498;4188
1499;4190
1497;4192
1499;4195
1489;4197
1493;4200
1507;4202
1494;4204
1479;4207
1464;4209
1463;4212
1479;4214
1492;4216
1504;4219
1500;4221
1491;4225
1486;4227
1488;4230
1487;4232
1485;4234
1496;4237
1502;4239
1495;4242
1487;4244
1484;4246
1486;4249
1491;4251
1496;4254
1498;4256
1489;4258
1479;4261
1471;4263
1466;4267
1465;4269
1486;4271
1527;4274
1552;4276
1540;4279
1506;4281
1497;4283
1501;4286
1496;4288
1479;4291
1464;4293
1456;4295
1457;4298
1468;4300
1490;4303
1515;4305
1523;4307
1523;4311
1510;4313
1502;4316
1502;4318
1498;4321
1496;4323
1500;4325
1496;4328
1492;4330
1507;4333
1521;4335
1530;4337
1541;4340
1538;4342
1515;4345
1487;4347
1476;4349
1479;4353
1487;4355
1491;4358
1495;4360
1498;4362
1489;4365
1480;4367
1466;4370
1462;4372
1466;4374
1477;4377
1487;4379
1515;4382
1521;4384
1521;4387
1526;4389
1520;4391
1500;4395
1480;4397
1464;4400
1465;4402
1475;4404
1482;4407
1492;4409
1493;4412
1488;4414
1477;4416
1473;4419
1478;4421
1489;4424
1513;4426
1526;4428
1530;4431
1525;4433
1516;4436
1504;4439
1492;4441
1483;4444
1479;4446
1470;4449
1466;4451
1467;4453
1483;4456
1497;4458
1502;4461
1497;4463
1494;4466
1493;4468
1487;4470
1488;4473
1500;4475
1501;4478
1498;4481
1499;4483
1514;4486
1522;4488
1509;4491
1494;4493
1483;4495
1480;4498
1504;4500
1529;4503
1544;4505
1532;4507
1507;4510
1488;4512
1475;4515
1464;4517
1458;4519
1475;4523
1496;4525
1514;4528
1531;4530
1536;4532
1523;4535
1511;4537
1511;4540
1528;4542
1534;4545
1521;4547
1525;4549
1529;4552
1527;4554
1533;4557
1518;4559
1513;4561
1521;4564
1527;4567
1528;4570
1532;4572
1517;4574
1495;4577
1495;4579
1522;4582
1561;4584
1570;4586
1532;4589
1485;4591
1469;4594
1475;4596
1494;4598
1525;4601
1496;4603
1451;4606
1433;4609
1428;4611
1430;4614
1434;4616
1436;4619
1439;4621
1444;4623
1446;4626
1446;4628
1449;4631
1452;4633
1467;4636
1490;4638
1511;4640
1538;4643
1527;4645
1515;4648
1497;4651
1502;4653
1500;4656
1484;4658
1479;4661
1483;4663
1485;4665
1483;4668
1475;4670
1469;4673
1462;4675
1455;4677
1456;4680
1466;4682
1481;4685
1499;4687
1508;4689
1503;4692
1485;4695
1470;4698
1472;4700
1482;4702
1491;4705
1511;4707
1505;4710
1501;4712
1522;4715
1521;4717
1505;4719
1501;4722
1494;4724
1485;4727
1486;4729
1498;4731
1512;4734
1505;4737
1495;4740
1492;4742
1486;4744
1482;4747
1476;4749
1469;4752
1469;4754
1486;4756
1510;4759
1546;4761
1558;4764
1528;4766
1508;4768
1494;4771
1477;4773
1464;4776
1463;4779
1489;4782
1518;4784
1516;4786
1510;4789
1502;4791
1487;4794
1479;4796
1477;4798
1487;4801
1501;4803
1511;4806
1510;4808
1509;4810
1515;4813
1515;4815
1508;4818
1509;4820
1511;4823
1513;4826
1509;4828
1499;4831
1495;4833
1500;4835
1488;4838
1478;4840
1473;4843
1470;4845
1486;4848
1515;4850
1535;4852
1550;4855
1537;4857
1527;4860
1527;4862
1524;4865
1509;4868
1491;4870
1500;4873
1512;4875
1514;4877
1521;4880
1523;4882
1517;4885
1511;4887
1510;4889
1511;4892
1512;4894
1506;4897
1491;4899
1483;4901
1494;4904
1508;4907
1529;4910
1543;4912
1534;4914
1512;4917
1500;4919
1488;4922
1480;4924
1481;4927
1493;4929
1500;4931
1497;4934
1497;4936
1506;4939
1511;4941
1515;4943
1504;4946
1495;4948
1488;4952
1488;4954
1498;4956
1508;4959
1499;4961
1487;4964
1480;4966
1481;4968
1479;4971
1479;4973
1486;4976
1482;4978
1483;4980
1486;4983
1495;4985
1524;4988
1556;4990
1544;4993
1514;4996
1494;4998
1482;5001
1475;5003
1462;5006
1458;5008
1465;5010
1470;5013
1488;5015
1510;5018
1507;5020
1499;5022
1506;5025
1511;5027
1533;5030
1522;5032
1501;5035
1483;5038
1481;5040
1482;5043
1478;5045
1475;5047
1477;5050
1479;5052
1504;5055
1520;5057
1523;5059
1503;5062
1481;5064
1472;5067
1467;5069
1466;5072
1473;5074
1471;5076
1488;5080
1506;5082
1510;5085
1516;5087
1506;5089
1487;5092
1482;5094
1475;5097
1467;5099
1469;5101
1480;5104
1505;5106
1517;5109
1530;5111
1520;5113
1482;5116
1468;5118
1478;5122
1487;5124
1488;5126
1479;5129
1476;5131
1483;5134
1494;5136
1517;5138
1528;5141
1528;5143
1514;5146
1497;5148
1487;5151
1483;5153
1483;5155
1486;5158
1485;5160
1478;5164
1471;5166
1473;5168
1473;5171
1471;5173
1480;5176
1489;5178
1491;5180
1498;5183
1495;5185
1491;5188
1490;5190
1493;5192
1503;5195
1500;5197
1486;5200
1480;5202
1481;5204
1483;5208
1484;5210
1478;5213
1471;5215
1468;5217
1463;5220
1467;5222
1475;5225
1480;5227
1485;5229
1488;5232
1484;5234
1487;5237
1490;5239
1494;5242
1497;5244
1504;5246
1511;5250
1511;5252
1498;5255
1488;5257
1483;5259
1485;5262
1489;5264
1493;5267
1492;5269
1487;5271
1481;5274
1486;5276
1488;5279
1493;5281
1494;5283
1493;5286
1494;5288
1494;5292
1488;5294
1482;5296
1478;5299
1481;5301
1489;5304
1496;5306
1503;5308
1506;5311
1505;5313
1503;5316
1495;5318
1488;5320
1489;5323
1492;5325
1496;5328
1497;5330
1496;5334
1492;5336
1489;5338
1493;5341
1498;5343
1501;5346
1509;5348
1519;5350
1525;5353
1524;5355
1515;5358
1507;5360
1505;5362
1504;5365
1504;5367
1503;5370
1499;5372
1494;5374
1491;5378
1488;5380
1492;5383
1496;5385
1497;5387
1498;5390
1497;5392
1494;5395
1491;5397
1489;5399
1494;5402
1505;5404
1512;5407
1515;5409
1518;5412
1513;5414
1503;5416
1495;5420
1494;5422
1497;5425
1499;5427
1504;5429
1504;5432
1499;5434
1496;5437
1493;5439
1496;5441
1500;5444
1502;5446
1504;5449
1504;5451
1501;5453
1500;5456
1498;5458
1502;5462
1509;5464
1516;5466
1520;5469
1519;5471
1512;5474
1506;5476
1502;5478
1504;5481
1511;5483
1520;5486
1530;5488
1530;5491
1523;5493
1516;5495
1511;5498
1504;5500
1503;5504
1503;5506
1505;5508
1507;5511
1508;5513
1507;5516
1501;5518
1496;5520
1498;5523
1501;5525
1503;5528
1506;5530
1505;5532
1504;5535
1503;5537
1504;5540
1509;5542
1514;5544
1518;5548
1520;5550
1520;5553
1517;5555
1516;5557
1516;5560
1519;5562
1528;5565
1536;5567
1543;5570
1545;5572
1541;5574
1537;5577
1536;5579
1539;5582
1543;5584
1549;5586
1554;5590
1561;5592
1565;5595
1565;5597
1564;5599
1567;5602
1565;5604
1561;5607
1558;5609
1555;5611
1551;5614
1547;5616
1545;5619
1546;5621
1550;5623
1553;5626
1553;5628
1552;5632
1548;5634
1544;5637
1540;5639
1540;5641
1543;5644
1545;5646
1547;5649
1546;5651
1543;5653
1539;5656
1536;5658
1536;5661
1540;5663
1543;5665
1544;5668
1544;5670
1541;5673
1539;5676
1536;5678
1536;5681
1542;5683
1550;5686
1556;5688
1555;5690
1548;5693
1541;5695
1537;5698
1535;5700
1536;5702
1539;5705
1540;5707
1539;5710
1535;5712
1529;5715
1525;5718
1523;5720
1524;5723
1526;5725
1527;5728
1527;5730
1525;5732
1521;5735
1518;5737
1516;5740
1519;5742
1521;5744
1524;5747
1526;5749
1523;5752
1518;5754
1514;5756
1511;5760
1513;5762
1517;5765
1519;5767
1521;5769
1518;5772
1512;5774
1506;5777
1501;5779
1501;5782
1504;5784
1506;5786
1508;5789
1507;5791
1509;5794
1510;5796
1509;5798
1506;5801
1508;5804
1510;5807
1512;5809
1511;5811
1508;5814
1505;5816
1503;5819
1502;5821
1506;5823
1509;5826
1510;5828
1509;5831
1506;5833
1504;5835
1502;5838
1503;5840
1507;5843
1509;5846
1511;5848
1511;5851
1508;5853
1505;5856
1503;5858
1502;5861
1506;5863
1510;5865
1513;5868
1515;5870
1513;5873
1511;5875
1511;5877
1512;5880
1517;5882
1522;5885
1526;5888
1530;5890
1530;5893
1529;5895
1529;5898
1529;5900
1533;5902
1540;5905
1545;5907
1550;5910
1549;5912
1545;5914
1543;5917
1542;5919
1545;5922
1550;5924
1551;5927
1552;5929
1551;5932
1548;5935
1546;5937
1544;5940
1545;5942
1549;5944
1550;5947
1551;5949
1550;5952
1548;5954
1546;5956
1545;5959
1544;5961
1546;5964
1548;5966
1550;5968
1549;5971
1543;5974
1538;5977
1537;5979
1541;5981
1548;5984
1551;5986
1551;5989
1550;5991
1545;5994
1541;5996
1538;5998
1536;6001
1538;6003
1540;6006
1541;6008
1539;6010
1534;6013
1530;6016
