mV;time
0;0
1487;2
1481;4
1476;7
1473;9
1472;11
1475;13
1484;16
1494;18
1499;20
1496;23
1491;25
1490;27
1490;30
1489;32
1489;34
1491;36
1494;39
1494;41
1488;44
1485;47
1482;49
1481;51
1480;54
1487;56
1499;58
1500;60
1501;63
1501;65
1503;67
1506;70
1509;72
1519;74
1525;77
1524;79
1521;81
1515;84
1510;87
1506;89
1506;91
1512;94
1519;96
1520;98
1521;101
1521;103
1516;105
1510;108
1505;110
1504;112
1510;115
1517;117
1524;120
1529;122
1529;124
1533;128
1537;130
1535;132
1532;135
1527;137
1524;139
1524;142
1520;144
1514;146
1511;149
1520;151
1536;153
1548;156
1541;158
1539;161
1533;163
1524;165
1523;168
1521;171
1519;173
1527;176
1545;178
1568;180
1595;183
1597;185
1579;187
1561;190
1546;192
1548;195
1552;197
1550;199
1550;202
1556;204
1562;206
1563;209
1560;211
1564;214
1550;217
1531;219
1513;221
1501;224
1484;226
1477;228
1501;231
1542;233
1573;236
1584;238
1573;240
1558;243
1530;245
1504;247
1478;250
1462;252
1458;254
1471;258
1497;260
1515;262
1513;265
1485;267
1460;269
1448;272
1446;274
1452;277
1454;279
1476;281
1512;284
1533;286
1547;288
1543;291
1526;293
1508;295
1482;299
1482;301
1492;303
1500;306
1486;308
1485;310
1492;313
1495;315
1488;318
1489;320
1493;322
1492;325
1482;327
1470;329
1445;332
1476;334
1497;336
1503;339
1508;342
1505;344
1490;347
1487;349
1492;352
1509;354
1515;356
1495;359
1462;361
1441;363
1456;366
1454;368
1435;370
1435;373
1458;375
1485;377
1517;380
1519;382
1499;385
1505;388
1510;390
1491;393
1481;395
1486;397
1488;400
1489;402
1484;404
1473;407
1466;409
1463;411
1472;414
1486;416
1491;418
1492;421
1499;423
1514;425
1506;429
1511;431
1505;434
1510;436
1520;438
1525;441
1520;443
1508;445
1498;448
1495;450
1490;452
1494;455
1504;457
1513;459
1519;462
1520;464
1515;467
1504;470
1496;472
1494;475
1512;477
1528;479
1524;482
1510;484
1494;486
1480;489
1473;491
1479;493
1489;496
1493;498
1503;500
1504;503
1500;505
1495;508
1488;510
1494;513
1500;516
1517;518
1513;520
1528;523
1534;525
1532;527
1520;530
1505;532
1495;534
1491;537
1499;539
1517;541
1513;544
1492;546
1487;549
1491;551
1518;553
1550;557
1536;559
1501;561
1493;564
1495;566
1491;568
1493;571
1495;573
1498;575
1495;578
1496;580
1498;583
1497;585
1487;587
1474;590
1467;592
1466;594
1463;598
1466;600
1492;602
1505;605
1509;607
1501;609
1490;612
1502;614
1518;616
1516;619
1498;621
1493;624
1495;626
1494;628
1484;631
1478;633
1479;635
1476;638
1469;641
1468;643
1463;646
1458;648
1459;650
1462;653
1471;655
1484;657
1499;660
1498;662
1496;665
1497;667
1473;669
1450;672
1458;674
1471;676
1477;679
1485;681
1496;684
1491;687
1483;689
1474;691
1472;694
1476;696
1485;698
1487;701
1491;703
1473;706
1460;708
1464;710
1473;713
1476;715
1477;717
1474;720
1474;722
1474;724
1475;728
1475;730
1474;732
1478;735
1484;737
1482;740
1482;742
1483;744
1489;747
1489;749
1488;751
1486;754
1489;756
1492;758
1495;761
1487;763
1481;765
1467;769
1464;771
1469;773
1478;776
1488;778
1498;781
1486;783
1467;785
1457;788
1452;790
1447;792
1448;795
1455;797
1459;799
1469;802
1476;804
1475;806
1471;809
1475;812
1488;815
1501;817
1478;819
1470;822
1473;824
1458;826
1449;829
1450;831
1450;833
1450;836
1451;838
1457;840
1460;843
1456;845
1447;847
1444;850
1438;852
1459;856
1499;858
1517;860
1522;863
1501;865
1478;867
1472;870
1463;872
1454;874
1464;877
1469;879
1482;881
1482;884
1461;886
1449;889
1442;891
1436;893
1452;897
1473;899
1488;901
1495;904
1491;906
1483;908
1467;911
1458;913
1460;915
1466;918
1472;920
1473;922
1480;925
1482;927
1482;930
1482;932
1482;934
1485;937
1488;940
1486;942
1487;945
1484;947
1473;949
1462;952
1459;954
1473;956
1484;959
1492;961
1488;963
1495;966
1500;968
1492;971
1475;973
1470;975
1473;978
1476;980
1486;983
1487;986
1476;988
1472;990
1469;993
1472;995
1489;997
1502;1000
1507;1002
1504;1005
1488;1007
1483;1009
1474;1012
1474;1014
1486;1017
1488;1019
1484;1021
1482;1025
1478;1027
1482;1030
1482;1032
1479;1034
1484;1037
1492;1039
1508;1042
1521;1044
1516;1046
1517;1049
1507;1051
1490;1054
1478;1056
1474;1059
1480;1061
1493;1063
1500;1067
1505;1069
1507;1072
1500;1074
1522;1076
1540;1079
1542;1081
1531;1084
1511;1086
1489;1088
1477;1091
1471;1093
1478;1096
1503;1098
1521;1100
1512;1103
1494;1105
1487;1108
1488;1111
1490;1113
1485;1116
1478;1118
1479;1121
1487;1123
1485;1125
1482;1128
1486;1130
1502;1133
1501;1135
1493;1137
1487;1140
1485;1142
1487;1145
1490;1147
1492;1150
1484;1153
1497;1155
1512;1158
1515;1160
1516;1163
1507;1165
1488;1167
1476;1170
1469;1172
1491;1175
1513;1177
1518;1179
1511;1182
1494;1184
1476;1187
1474;1189
1484;1191
1508;1195
1513;1197
1498;1200
1493;1202
1487;1204
1475;1207
1468;1209
1463;1212
1495;1214
1523;1216
1537;1219
1549;1221
1530;1224
1508;1226
1486;1228
1473;1231
1474;1233
1484;1236
1487;1239
1488;1242
1486;1244
1482;1246
1478;1249
1477;1251
1474;1254
1478;1256
1492;1258
1500;1261
1505;1263
1501;1266
1493;1268
1495;1270
1501;1273
1503;1275
1495;1278
1494;1281
1497;1283
1497;1286
1505;1288
1511;1291
1511;1293
1513;1295
1504;1298
1484;1300
1479;1303
1481;1305
1487;1307
1488;1310
1500;1312
1528;1315
1543;1317
1560;1319
1556;1323
1538;1325
1519;1328
1507;1330
1495;1332
1489;1335
1492;1337
1496;1340
1501;1342
1500;1345
1504;1347
1507;1349
1507;1352
1503;1354
1507;1357
1521;1359
1529;1361
1521;1364
1502;1367
1496;1370
1486;1372
1487;1374
1496;1377
1499;1379
1493;1382
1484;1384
1473;1386
1468;1389
1472;1391
1479;1394
1492;1396
1497;1398
1507;1401
1511;1403
1511;1406
1503;1409
1484;1411
1480;1414
1486;1416
1491;1419
1495;1421
1500;1423
1501;1426
1503;1428
1496;1431
1484;1433
1481;1435
1481;1438
1488;1440
1498;1443
1497;1445
1488;1448
1485;1451
1488;1453
1494;1456
1492;1458
1501;1461
1507;1463
1508;1465
1490;1468
1489;1470
1493;1473
1492;1475
1489;1477
1486;1480
1489;1482
1478;1485
1471;1487
1470;1489
1465;1492
1465;1495
1472;1498
1474;1500
1479;1502
1479;1505
1479;1507
1476;1510
1472;1512
1482;1514
1494;1517
1500;1519
1502;1522
1492;1524
1476;1526
1473;1529
1476;1531
1482;1534
1485;1537
1485;1540
1483;1542
1480;1544
1478;1547
1471;1549
1476;1552
1496;1554
1515;1556
1505;1559
1492;1561
1491;1564
1488;1566
1497;1568
1498;1571
1492;1573
1493;1576
1489;1579
1482;1581
1489;1584
1495;1586
1491;1589
1483;1591
1488;1593
1508;1596
1513;1598
1519;1601
1510;1603
1492;1605
1484;1608
1481;1610
1485;1613
1493;1615
1484;1618
1475;1620
1473;1623
1467;1626
1459;1628
1472;1631
1486;1633
1501;1635
1502;1638
1501;1640
1493;1643
1474;1645
1450;1647
1444;1650
1448;1652
1453;1655
1465;1657
1473;1659
1475;1662
1477;1665
1485;1668
1490;1670
1482;1672
1486;1675
1494;1677
1496;1680
1497;1682
1491;1684
1493;1687
1492;1689
1481;1692
1484;1694
1501;1696
1513;1699
1516;1701
1506;1704
1494;1707
1499;1709
1498;1712
1489;1714
1487;1717
1483;1719
1481;1722
1486;1724
1487;1726
1500;1729
1493;1731
1482;1734
1490;1736
1497;1738
1504;1741
1503;1743
1494;1746
1485;1748
1483;1751
1488;1754
1493;1756
1484;1759
1478;1761
1473;1763
1479;1766
1483;1768
1478;1771
1482;1773
1497;1775
1504;1778
1496;1780
1489;1783
1494;1785
1500;1787
1511;1790
1503;1793
1489;1796
1496;1798
1502;1800
1501;1803
1508;1805
1504;1808
1497;1810
1495;1813
1496;1815
1502;1817
1503;1820
1507;1822
1495;1825
1487;1827
1486;1829
1488;1832
1503;1835
1519;1838
1510;1840
1506;1842
1503;1845
1500;1847
1496;1850
1488;1852
1489;1854
1491;1857
1491;1859
1496;1862
1498;1864
1495;1866
1487;1869
1479;1871
1481;1874
1486;1876
1485;1879
1492;1882
1509;1884
1506;1887
1498;1889
1484;1891
1475;1894
1475;1896
1486;1899
1492;1901
1497;1903
1506;1906
1501;1908
1504;1911
1518;1913
1533;1916
1536;1918
1516;1921
1501;1924
1487;1926
1480;1929
1486;1931
1481;1933
1473;1936
1475;1938
1497;1941
1500;1943
1484;1945
1467;1948
1459;1950
1457;1953
1468;1955
1485;1957
1488;1960
1489;1963
1490;1966
1485;1968
1479;1970
1480;1973
1498;1975
1509;1978
1532;1980
1538;1982
1514;1985
1498;1987
1485;1990
1482;1992
1493;1994
1496;1997
1494;1999
1504;2002
1511;2004
1510;2008
1510;2010
1505;2012
1499;2015
1499;2017
1498;2020
1503;2022
1504;2024
1494;2027
1492;2029
1499;2032
1504;2034
1515;2036
1528;2039
1560;2041
1563;2044
1523;2046
1507;2049
1506;2052
1503;2054
1505;2057
1510;2059
1515;2061
1512;2064
1502;2066
1492;2069
1498;2071
1511;2073
1535;2076
1528;2078
1520;2081
1524;2083
1516;2085
1504;2088
1494;2091
1500;2094
1510;2096
1507;2099
1504;2101
1506;2103
1507;2106
1503;2108
1495;2111
1487;2113
1486;2115
1485;2118
1496;2120
1512;2123
1516;2125
1515;2127
1515;2130
1514;2132
1516;2136
1525;2138
1527;2140
1516;2143
1522;2145
1522;2148
1519;2150
1516;2152
1514;2155
1512;2157
1509;2160
1514;2162
1513;2164
1523;2167
1527;2169
1516;2172
1507;2174
1505;2178
1514;2180
1523;2182
1525;2185
1511;2187
1502;2190
1504;2192
1518;2194
1525;2197
1520;2199
1517;2202
1513;2204
1506;2206
1494;2209
1495;2211
1507;2214
1520;2216
1537;2219
1556;2222
1558;2224
1553;2227
1535;2229
1522;2231
1519;2234
1521;2236
1524;2239
1524;2241
1526;2243
1524;2246
1520;2248
1521;2251
1529;2253
1538;2256
1545;2258
1568;2260
1577;2264
1564;2266
1544;2269
1535;2271
1532;2273
1531;2276
1531;2278
1527;2281
1526;2283
1521;2285
1523;2288
1519;2290
1510;2293
1516;2295
1519;2297
1522;2300
1527;2302
1526;2306
1517;2308
1510;2310
1497;2313
1495;2315
1494;2318
1492;2320
1498;2322
1500;2325
1493;2327
1486;2330
1480;2332
1473;2335
1490;2337
1510;2339
1514;2342
1508;2344
1483;2348
1461;2350
1441;2352
1431;2355
1425;2357
1415;2360
1409;2362
1404;2364
1406;2367
1415;2369
1409;2372
1408;2374
1407;2376
1425;2379
1462;2381
1464;2384
1447;2386
1442;2388
1438;2392
1431;2394
1425;2397
1422;2399
1424;2402
1426;2404
1425;2406
1425;2409
1430;2411
1435;2414
1451;2416
1457;2418
1452;2421
1446;2423
1441;2426
1446;2428
1448;2430
1448;2434
1454;2436
1450;2439
1437;2441
1443;2443
1449;2446
1456;2448
1471;2451
1488;2453
1505;2455
1518;2458
1508;2460
1494;2463
1482;2465
1472;2467
1467;2470
1478;2472
1499;2476
1505;2478
1500;2480
1500;2483
1493;2485
1484;2488
1481;2490
1476;2492
1482;2495
1497;2497
1515;2500
1528;2502
1516;2505
1512;2507
1517;2509
1506;2512
1502;2514
1503;2518
1509;2520
1519;2522
1530;2525
1522;2527
1504;2530
1502;2532
1505;2534
1508;2537
1512;2539
1518;2542
1517;2544
1511;2546
1501;2549
1498;2551
1503;2554
1517;2556
1529;2558
1542;2562
1545;2564
1540;2567
1533;2569
1522;2571
1521;2574
1529;2576
1537;2579
1542;2581
1538;2584
1519;2586
1508;2588
1493;2591
1496;2593
1509;2596
1513;2598
1512;2600
1513;2604
1518;2606
1516;2609
1517;2611
1529;2613
1533;2616
1510;2618
1494;2621
1488;2623
1479;2625
1480;2628
1473;2630
1463;2633
1460;2635
1459;2637
1462;2640
1460;2642
1459;2646
1453;2648
1446;2650
1428;2653
1422;2655
1437;2658
1440;2660
1426;2662
1411;2665
1403;2667
1405;2670
1417;2672
1427;2674
1423;2677
1413;2679
1406;2682
1405;2684
1412;2688
1416;2690
1415;2692
1422;2695
1429;2697
1421;2700
1412;2702
1413;2704
1397;2707
1413;2709
1427;2712
1427;2714
1428;2716
1433;2719
1445;2721
1461;2724
1457;2726
1447;2728
1453;2732
1463;2734
1476;2737
1476;2739
1496;2741
1505;2744
1515;2746
1520;2749
1507;2751
1496;2753
1501;2756
1499;2758
1511;2761
1524;2763
1515;2765
1504;2768
1492;2770
1491;2774
1498;2776
1508;2778
1514;2781
1507;2783
1503;2786
1511;2788
1508;2791
1526;2793
1545;2795
1532;2798
1512;2800
1502;2803
1494;2805
1478;2807
1472;2810
1472;2812
1486;2816
1502;2818
1504;2820
1495;2823
1493;2825
1479;2828
1492;2830
1508;2832
1510;2835
1505;2837
1503;2840
1503;2842
1501;2844
1496;2847
1495;2849
1496;2852
1506;2854
1524;2856
1524;2860
1524;2862
1529;2865
1517;2867
1499;2870
1495;2872
1498;2874
1509;2877
1522;2879
1512;2882
1500;2884
1492;2886
1485;2889
1466;2891
1448;2894
1439;2896
1432;2898
1425;2902
1418;2904
1404;2907
1388;2909
1374;2911
1358;2914
1346;2916
1344;2919
1350;2921
1353;2923
1345;2926
1339;2928
1341;2931
1345;2933
1343;2935
1341;2938
1340;2940
1336;2944
1338;2946
1340;2948
1339;2951
1333;2953
1341;2956
1358;2958
1369;2960
1370;2963
1377;2965
1371;2968
1360;2970
1355;2973
1353;2975
1369;2977
1380;2980
1368;2982
1350;2985
1333;2988
1325;2990
1319;2993
1315;2995
1317;2998
1327;3000
1339;3002
1357;3005
1362;3007
1349;3010
1330;3012
1328;3014
1340;3017
1340;3019
1345;3022
1343;3024
1332;3026
1320;3030
1312;3032
1319;3035
1334;3037
1351;3039
1375;3042
1385;3044
1382;3047
1368;3049
1352;3051
1359;3054
1369;3056
1366;3059
1362;3061
1362;3064
1379;3066
1392;3068
1375;3072
1367;3074
1372;3077
1381;3079
1400;3081
1397;3084
1375;3086
1360;3089
1360;3091
1355;3093
1354;3096
1362;3098
1377;3101
1394;3103
1392;3105
1384;3108
1380;3110
1383;3113
1401;3116
1410;3118
1426;3121
1431;3123
1421;3126
1403;3128
1393;3130
1386;3133
1389;3135
1402;3138
1407;3140
1419;3143
1438;3145
1440;3147
1420;3150
1395;3152
1400;3155
1416;3158
1421;3160
1424;3163
1425;3165
1421;3168
1434;3170
1442;3172
1436;3175
1445;3177
1452;3180
1445;3182
1436;3184
1432;3187
1429;3189
1421;3192
1418;3194
1424;3196
1433;3200
1436;3202
1431;3205
1428;3207
1441;3210
1472;3212
1486;3214
1477;3217
1469;3219
1465;3222
1460;3224
1450;3226
1440;3229
1429;3231
1422;3234
1430;3236
1451;3238
1459;3241
1464;3244
1461;3247
1452;3249
1440;3251
1441;3254
1445;3256
1451;3259
1463;3261
1473;3263
1480;3266
1487;3268
1484;3271
1481;3273
1486;3275
1492;3278
1492;3280
1505;3283
1503;3286
1510;3288
1510;3291
1506;3293
1505;3296
1517;3298
1519;3300
1516;3303
1509;3305
1498;3308
1494;3310
1491;3313
1510;3315
1533;3317
1545;3320
1555;3322
1557;3325
1556;3328
1539;3330
1531;3333
1529;3335
1542;3338
1548;3340
1558;3342
1542;3345
1513;3347
1517;3350
1529;3352
1541;3354
1547;3357
1529;3359
1517;3362
1532;3364
1534;3366
1529;3369
1533;3372
1542;3375
1553;3377
1560;3379
1545;3382
1530;3384
1512;3387
1504;3389
1506;3392
1512;3394
1529;3396
1539;3399
1539;3401
1530;3404
1518;3406
1521;3408
1522;3411
1521;3414
1523;3417
1519;3419
1520;3421
1520;3424
1510;3426
1500;3429
1498;3431
1495;3433
1514;3436
1534;3438
1538;3441
1532;3443
1521;3445
1517;3448
1510;3450
1506;3453
1506;3456
1500;3459
1509;3461
1519;3463
1528;3466
1537;3468
1533;3471
1526;3473
1523;3475
1514;3478
1506;3480
1498;3483
1488;3485
1483;3487
1484;3490
1485;3492
1496;3495
1507;3497
1508;3500
1510;3503
1520;3505
1538;3508
1535;3510
1514;3512
1495;3515
1493;3517
1487;3520
1491;3522
1496;3524
1488;3527
1479;3529
1474;3532
1476;3534
1485;3537
1489;3539
1498;3542
1500;3545
1492;3547
1482;3550
1479;3552
1484;3554
1490;3557
1484;3559
1484;3562
1484;3564
1482;3566
1484;3569
1489;3571
1493;3574
1496;3576
1492;3578
1484;3581
1477;3584
1460;3587
1459;3589
1463;3591
1465;3594
1467;3596
1477;3599
1485;3601
1485;3603
1477;3606
1465;3608
1459;3611
1454;3613
1458;3615
1464;3618
1486;3620
1497;3623
1494;3625
1488;3629
1491;3631
1497;3633
1494;3636
1493;3638
1488;3641
1480;3643
1477;3645
1474;3648
1470;3650
1464;3653
1468;3655
1476;3657
1484;3660
1494;3662
1493;3665
1487;3667
1473;3670
1453;3673
1444;3675
1444;3678
1450;3680
1464;3682
1474;3685
1478;3687
1479;3690
1479;3692
1479;3694
1468;3697
1464;3699
1466;3702
1463;3704
1456;3706
1446;3709
1439;3712
1439;3715
1449;3717
1461;3720
1467;3722
1466;3724
1460;3727
1469;3729
1481;3732
1491;3734
1493;3736
1480;3739
1475;3741
1476;3744
1467;3746
1469;3748
1470;3751
1472;3753
1477;3757
1478;3759
1483;3761
1479;3764
1474;3766
1475;3769
1475;3771
1480;3773
1492;3776
1499;3778
1504;3781
1503;3783
1491;3785
1478;3788
1473;3790
1472;3793
1482;3795
1486;3799
1492;3801
1499;3803
1503;3806
1496;3808
1503;3811
1504;3813
1497;3815
1492;3818
1485;3820
1483;3823
1475;3825
1464;3827
1463;3830
1469;3832
1478;3835
1482;3837
1487;3840
1489;3843
1481;3845
1475;3848
1478;3850
1482;3852
1490;3855
1498;3857
1499;3860
1505;3862
1508;3864
1498;3867
1491;3869
1491;3872
1487;3874
1496;3877
1517;3879
1519;3881
1501;3885
1494;3887
1497;3890
1494;3892
1496;3894
1498;3897
1498;3899
1501;3902
1504;3904
1504;3906
1502;3909
1504;3911
1499;3914
1507;3916
1518;3918
1530;3921
1523;3923
1533;3927
1539;3929
1528;3931
1512;3934
1513;3936
1523;3939
1524;3941
1513;3943
1499;3946
1493;3948
1493;3951
1498;3953
1502;3956
1505;3958
1516;3960
1521;3963
1514;3965
1502;3969
1493;3971
1488;3973
1491;3976
1498;3978
1506;3981
1509;3983
1505;3985
1504;3988
1502;3990
1502;3993
1512;3995
1511;3997
1514;4000
1516;4002
1517;4005
1511;4007
1503;4009
1493;4013
1493;4015
1496;4018
1495;4020
1497;4022
1499;4025
1500;4027
1499;4030
1495;4032
1490;4034
1493;4037
1495;4039
1498;4042
1495;4044
1496;4047
1504;4049
1502;4051
1505;4055
1514;4057
1517;4060
1515;4062
1505;4064
1491;4067
1478;4069
1481;4072
1490;4074
1485;4076
1470;4079
1479;4081
1493;4084
1493;4086
1490;4088
1489;4091
1490;4093
1496;4097
1501;4099
1505;4101
1504;4104
1501;4106
1495;4109
1492;4111
1495;4113
1509;4116
1510;4118
1514;4121
1520;4123
1522;4125
1510;4128
1498;4130
1497;4133
1493;4135
1494;4139
1483;4141
1497;4143
1509;4146
1506;4148
1494;4151
1497;4153
1504;4155
1504;4158
1502;4160
1493;4163
1482;4165
1482;4167
1485;4170
1486;4172
1493;4175
1508;4177
1515;4179
1512;4183
1509;4185
1510;4188
1510;4190
1508;4192
1505;4195
1504;4197
1511;4200
1520;4202
1515;4205
1510;4207
1504;4209
1498;4212
1503;4214
1512;4217
1509;4219
1503;4221
1500;4225
1502;4227
1502;4230
1495;4232
1494;4234
1503;4237
1512;4239
1523;4242
1528;4244
1499;4246
1478;4249
1483;4251
1502;4254
1514;4256
1518;4258
1514;4261
1510;4263
1510;4267
1505;4269
1500;4271
1497;4274
1500;4276
1506;4279
1512;4281
1521;4284
1523;4286
1512;4288
1495;4291
1499;4293
1521;4296
1527;4298
1513;4300
1501;4303
1497;4305
1471;4308
1473;4311
1499;4313
1521;4316
1520;4318
1509;4321
1505;4323
1499;4325
1496;4328
1500;4330
1498;4333
1498;4335
1493;4337
1483;4340
1505;4342
1529;4345
1511;4347
1496;4349
1488;4353
1496;4355
1509;4358
1518;4360
1512;4363
1499;4365
1501;4367
1502;4370
1495;4372
1493;4375
1492;4377
1498;4379
1506;4382
1501;4384
1507;4387
1494;4389
1475;4391
1489;4395
1502;4397
1503;4400
1504;4402
1509;4404
1495;4407
1502;4409
1524;4412
1531;4414
1522;4416
1522;4419
1527;4421
1518;4424
1497;4426
1482;4428
1487;4431
1481;4433
1482;4436
1497;4439
1511;4442
1515;4444
1508;4446
1501;4449
1502;4451
1515;4454
1524;4456
1521;4458
1518;4461
1517;4463
1518;4466
1512;4468
1504;4470
1500;4473
1508;4475
1509;4478
1508;4481
1533;4483
1539;4486
1515;4488
1500;4491
1497;4493
1484;4495
1484;4498
1488;4500
1474;4503
1478;4505
1483;4507
1494;4510
1503;4512
1508;4515
1508;4517
1502;4520
1502;4523
1502;4525
1510;4528
1512;4530
1508;4533
1509;4535
1513;4537
1512;4540
1507;4542
1501;4545
1494;4547
1489;4549
1487;4552
1496;4554
1502;4557
1500;4559
1496;4561
1492;4564
1491;4567
1493;4570
1489;4572
1490;4574
1498;4577
1504;4579
1515;4582
1515;4584
1501;4586
1489;4589
1474;4591
1510;4594
1543;4596
1532;4599
1516;4601
1507;4603
1498;4606
1487;4609
1478;4612
1469;4614
1469;4616
1470;4619
1475;4621
1471;4624
1473;4626
1477;4628
1484;4631
1483;4633
1481;4636
1479;4638
1473;4640
1471;4643
1468;4645
1466;4648
1461;4651
1459;4653
1465;4656
1453;4658
1472;4661
1505;4663
1495;4665
1462;4668
1451;4670
1445;4673
1463;4675
1486;4678
1486;4680
1466;4682
1465;4685
1466;4687
1460;4690
1454;4692
1455;4695
1470;4698
1485;4700
1490;4703
1482;4705
1455;4707
1441;4710
1437;4712
1446;4715
1459;4717
1479;4719
1491;4722
1476;4724
1448;4727
1454;4729
1465;4731
1464;4734
1466;4737
1479;4740
1497;4742
1496;4744
1477;4747
1469;4749
1465;4752
1460;4754
1460;4757
1451;4759
1445;4761
1459;4764
1471;4766
1458;4769
1460;4771
1471;4773
1474;4776
1470;4779
1466;4782
1462;4784
1458;4786
1448;4789
1458;4791
1468;4794
1467;4796
1462;4798
1456;4801
1444;4803
1460;4806
1469;4808
1462;4810
1458;4813
1452;4815
1459;4818
1458;4820
1477;4823
1489;4826
1482;4828
1473;4831
1464;4833
1454;4836
1451;4838
1457;4840
1469;4843
1462;4845
1455;4848
1464;4850
1466;4852
1465;4855
1470;4857
1475;4860
1474;4862
1472;4865
1463;4868
1458;4870
1457;4873
1463;4875
1468;4877
1458;4880
1449;4882
1469;4885
1479;4887
1475;4889
1463;4892
1468;4894
1491;4897
1499;4899
1485;4901
1473;4904
1493;4907
1503;4910
1489;4912
1480;4914
1482;4917
1484;4919
1486;4922
1488;4924
1485;4927
1483;4929
1482;4931
1483;4934
1499;4936
1510;4939
1516;4941
1513;4943
1501;4946
1472;4948
1465;4952
1491;4954
1503;4956
1495;4959
1495;4961
1501;4964
1502;4966
1489;4968
1478;4971
1482;4973
1488;4976
1490;4978
1492;4980
1513;4983
1516;4985
1493;4988
1480;4990
1458;4993
1466;4996
1495;4998
1505;5001
1501;5003
1496;5006
1483;5008
1482;5010
1481;5013
1483;5015
1488;5018
1492;5020
1498;5022
1497;5025
1492;5027
1485;5030
1480;5032
1495;5035
1507;5038
1497;5040
1486;5043
1478;5045
1475;5047
1478;5050
1473;5052
1458;5055
1460;5057
1468;5059
1461;5062
1461;5064
1486;5067
1499;5069
1478;5071
1475;5074
1504;5076
1518;5080
1513;5082
1509;5085
1511;5087
1497;5089
1482;5092
1474;5094
1474;5097
1487;5099
1498;5101
1498;5104
1496;5106
1484;5109
1486;5111
1491;5113
1496;5116
1478;5118
1479;5122
1512;5124
1533;5126
1523;5129
1487;5131
1489;5134
1499;5136
1511;5138
1500;5141
1487;5143
1493;5146
1502;5148
1505;5151
1503;5153
1505;5155
1496;5158
1498;5160
1495;5164
1496;5166
1502;5168
1514;5171
1514;5173
1512;5176
1510;5178
1508;5180
1488;5183
1495;5185
1509;5188
1516;5190
1510;5192
1501;5195
1527;5197
1549;5200
1545;5202
1521;5204
1514;5208
1518;5210
1507;5213
1491;5215
1513;5217
1519;5220
1522;5222
1522;5225
1527;5227
1523;5229
1500;5232
1501;5234
1516;5237
1516;5239
1518;5242
1522;5244
1526;5246
1516;5250
1509;5252
1525;5255
1533;5257
1533;5259
1533;5262
1531;5264
1532;5267
1524;5269
1493;5271
1496;5274
1522;5276
1532;5279
1529;5281
1509;5283
1500;5286
1518;5288
1524;5292
1527;5294
1531;5296
1509;5299
1519;5301
1536;5304
1526;5306
1501;5309
1508;5311
1524;5313
1527;5316
1522;5318
1530;5321
1542;5323
1542;5325
1533;5328
1512;5330
1515;5334
1536;5336
1549;5338
1558;5341
1561;5343
1549;5346
1532;5348
1503;5350
1484;5353
1505;5355
1535;5358
1537;5360
1532;5362
1534;5365
1536;5367
1529;5370
1536;5372
1547;5374
1547;5378
1548;5380
1552;5383
1550;5385
1533;5387
1530;5390
1535;5392
1542;5395
1548;5397
1556;5400
1560;5402
1564;5404
1554;5407
1523;5409
1532;5412
1546;5414
1554;5416
1548;5420
1515;5422
1515;5425
1547;5427
1562;5429
1554;5432
1550;5434
1545;5437
1553;5439
1576;5441
1580;5444
1568;5446
1562;5449
1549;5451
1552;5454
1563;5456
1567;5458
1567;5462
1565;5464
1543;5467
1545;5469
1553;5471
1556;5474
1554;5476
1545;5479
1558;5481
1553;5483
1562;5486
1570;5488
1563;5491
1547;5493
1541;5495
1542;5498
1539;5500
1536;5504
1524;5506
1527;5508
1543;5511
1550;5513
1554;5516
1557;5518
1561;5520
1563;5523
1562;5525
1549;5528
1548;5530
1549;5533
1528;5535
1540;5537
1555;5540
1556;5542
1546;5545
1542;5548
1528;5550
1515;5553
1529;5555
1557;5558
1564;5560
1559;5562
1549;5565
1503;5567
1513;5570
1537;5572
1529;5574
1555;5577
1579;5579
1574;5582
1553;5584
1539;5586
1526;5590
1524;5592
1527;5595
1537;5597
1546;5600
1551;5602
1552;5604
1550;5607
1539;5609
1539;5612
1562;5614
1575;5616
1559;5619
1544;5621
1539;5624
1532;5626
1518;5628
1498;5632
1507;5634
1538;5637
1551;5639
1555;5641
1556;5644
1543;5646
1538;5649
1542;5651
1536;5653
1541;5656
1554;5658
1558;5661
1561;5663
1547;5665
1510;5668
1520;5670
1546;5673
1556;5676
1555;5679
1549;5681
1553;5683
1555;5686
1547;5688
1536;5691
1544;5693
1547;5695
1544;5698
1558;5700
1589;5703
1587;5705
1563;5707
1542;5710
1529;5712
1516;5715
1505;5718
1523;5720
1538;5723
1530;5725
1532;5728
1538;5730
1532;5732
1528;5735
1528;5737
1517;5740
1516;5742
1526;5745
1530;5747
1527;5749
1530;5752
1538;5754
1537;5757
1538;5760
1544;5762
1521;5765
1511;5767
1504;5770
1504;5772
1505;5774
1495;5777
1517;5779
1539;5782
1538;5784
1529;5786
1534;5789
1535;5791
1525;5794
1524;5796
1508;5798
1510;5801
1524;5804
1538;5807
1525;5809
1488;5811
1515;5814
1535;5816
1537;5819
1538;5821
1539;5824
1527;5826
1513;5828
1509;5831
1517;5833
1529;5836
1526;5838
1521;5840
1537;5843
1553;5846
1543;5849
1520;5851
1506;5853
1525;5856
1513;5858
1498;5861
1515;5863
1521;5865
1516;5868
1542;5870
1548;5873
1531;5875
1508;5877
1513;5880
1538;5882
1543;5885
1538;5888
1531;5891
1527;5893
1514;5895
1521;5898
1528;5900
1539;5903
1536;5905
1516;5907
1524;5910
1534;5912
1528;5915
1518;5917
1513;5919
1524;5922
1531;5924
1525;5927
1516;5929
1507;5932
1502;5935
1509;5937
1515;5940
1512;5942
1499;5944
1497;5947
1490;5949
1506;5952
1526;5954
1535;5957
1532;5959
1510;5961
1501;5964
1521;5966
1527;5969
1506;5971
1508;5974
1525;5977
1532;5979
1527;5982
1519;5984
1504;5986
1503;5989
1512;5991
1521;5994
1530;5996
1536;5998
1528;6001
1498;6003
1513;6006
1503;6008
1483;6010
1491;6013
1524;6016
1535;6019
1529;6021
1524;6024
1520;6026
1516;6028
1511;6031
1500;6033
1495;6036
1501;6038
1509;6040
1516;6043
1513;6045
1509;6048
1507;6050
1501;6052
1494;6055
1485;6057
1495;6061
1507;6063
1493;6065
1468;6068
1473;6070
1488;6073
1485;6075
1502;6077
1517;6080
1504;6082
1507;6085
1508;6087
1497;6089
1481;6092
1479;6094
1490;6097
1503;6099
1503;6103
1495;6105
1491;6107
1485;6110
1478;6112
1484;6115
1479;6117
1467;6119
1486;6122
1501;6124
1494;6127
1480;6129
1474;6131
1474;6134
1484;6136
1482;6139
1462;6141
1476;6144
1486;6147
1481;6149
1477;6152
1492;6154
1499;6156
1502;6159
1500;6161
1493;6164
1474;6166
1454;6169
1464;6171
1490;6173
1507;6176
1497;6178
1501;6181
1509;6183
1505;6185
1486;6189
1470;6191
1468;6194
1494;6196
1495;6198
1523;6201
1545;6203
1524;6206
1503;6208
1494;6210
1487;6213
1476;6215
1476;6218
1483;6220
1488;6222
1484;6225
1482;6227
1477;6231
1477;6233
1484;6235
1486;6238
1492;6240
1497;6243
1490;6245
1473;6248
1454;6250
1450;6252
1453;6255
1456;6257
1455;6260
1429;6262
1435;6264
1460;6267
1464;6269
1454;6273
1461;6275
1474;6277
1479;6280
1466;6282
1452;6285
1459;6287
1460;6289
1456;6292
1461;6294
1478;6297
1489;6299
1492;6301
1493;6304
1463;6306
1442;6309
1444;6311
1449;6313
1452;6317
1456;6319
1451;6322
1452;6324
1457;6327
1447;6329
1442;6331
1445;6334
1456;6336
1467;6339
1474;6341
1474;6343
1468;6346
1467;6348
1468;6351
1461;6353
1451;6355
1461;6359
1464;6361
1468;6364
1485;6366
1482;6368
1468;6371
1451;6373
1444;6376
1446;6378
1454;6381
1458;6383
1456;6385
1450;6388
1451;6390
1450;6393
1451;6395
1446;6397
1449;6401
1460;6403
1459;6406
1453;6408
1453;6410
1453;6413
1444;6415
1447;6418
1461;6420
1462;6422
1472;6425
1476;6427
1464;6430
1451;6432
1453;6434
1449;6437
1445;6439
1469;6443
1493;6445
1484;6447
1468;6450
1461;6452
1464;6455
1469;6457
1477;6459
1488;6462
1486;6464
1478;6467
1466;6469
1454;6471
1445;6474
1448;6476
1460;6479
1455;6481
1461;6483
1475;6487
1473;6489
1456;6492
1440;6494
1468;6497
1497;6499
1503;6501
1485;6504
1474;6506
1459;6509
1446;6511
1438;6513
1442;6516
1449;6518
1465;6521
1473;6523
1466;6525
1467;6529
1465;6531
1450;6534
1440;6536
1434;6538
1440;6541
1438;6543
1442;6546
1452;6548
1456;6550
1455;6553
1460;6555
1460;6558
1454;6560
1442;6562
1433;6565
1449;6567
1459;6571
1454;6573
1450;6575
1458;6578
1459;6580
1462;6583
1455;6585
1456;6587
1453;6590
1447;6592
1444;6595
1448;6597
1449;6600
1449;6602
1452;6604
1448;6607
1443;6609
1447;6612
1448;6615
1447;6617
1447;6620
1444;6622
1439;6625
1445;6627
1451;6629
1447;6632
1455;6634
1463;6637
1466;6639
1465;6641
1460;6644
1472;6646
1488;6649
1480;6651
1461;6653
1459;6657
1458;6659
1454;6662
1448;6664
1452;6666
1451;6669
1455;6671
1460;6674
1469;6676
1469;6678
1460;6681
1451;6683
1464;6686
1473;6688
1469;6691
1464;6693
1467;6695
1470;6699
1471;6701
1473;6704
1470;6706
1469;6708
1455;6711
1458;6713
1458;6716
1459;6718
1487;6720
1505;6723
1493;6725
1474;6728
1466;6730
1457;6732
1445;6735
1455;6737
1471;6740
1473;6743
1469;6745
1467;6748
1461;6750
1454;6753
1467;6755
1490;6757
1501;6760
1507;6762
1490;6765
1484;6767
1497;6770
1498;6772
1487;6774
1474;6777
1473;6779
1471;6782
1471;6785
1469;6787
1469;6790
1448;6792
1451;6795
1467;6797
1488;6799
1494;6802
1508;6804
1520;6807
1514;6809
1497;6811
1489;6814
1487;6816
1484;6819
1479;6821
1462;6823
1472;6827
1494;6829
1510;6832
1508;6834
1502;6836
1496;6839
1496;6841
1495;6844
1491;6846
1484;6848
1472;6851
1464;6853
1467;6856
1453;6858
1465;6861
1489;6863
1491;6865
1479;6868
1476;6871
1480;6874
1475;6876
1470;6878
1491;6881
1504;6883
1494;6886
1480;6888
1473;6890
1470;6893
1470;6895
1474;6898
1482;6900
1490;6902
1487;6905
1479;6907
1482;6910
1485;6913
1478;6915
1475;6918
1481;6920
1484;6923
1473;6925
1477;6927
1477;6930
1460;6932
1465;6935
1482;6937
1485;6940
1467;6942
1465;6944
1474;6947
1477;6949
1473;6952
1462;6955
1468;6957
1481;6960
1488;6962
1494;6965
1489;6967
1480;6969
1471;6972
1468;6974
1475;6977
1482;6979
1489;6981
1484;6984
1465;6986
1460;6989
1461;6991
1461;6993
1438;6996
1436;6999
1468;7002
1497;7004
1491;7006
1483;7009
1486;7011
1467;7014
1467;7016
1485;7018
1491;7021
1479;7023
1475;7026
1472;7028
1475;7031
1485;7033
1482;7035
1479;7038
1473;7041
1463;7044
1456;7046
1454;7048
1451;7051
1455;7053
1450;7056
1453;7058
1463;7060
1458;7063
1456;7065
1466;7068
1469;7070
1463;7072
1454;7075
1464;7077
1481;7080
1475;7083
1469;7085
1486;7088
1496;7090
1493;7093
1491;7095
1494;7098
1491;7100
1486;7102
1480;7105
1465;7107
1457;7110
1456;7112
1467;7114
1482;7117
1492;7119
1493;7122
1492;7124
1483;7127
1477;7130
1474;7132
1481;7135
1502;7137
1512;7139
1514;7142
1508;7144
1496;7147
1485;7149
1464;7151
1462;7154
1478;7156
1494;7159
1496;7161
1494;7163
1488;7166
1480;7169
1458;7172
1457;7174
1483;7177
1499;7179
1497;7181
1498;7184
1497;7186
1489;7189
1483;7191
1486;7193
1499;7196
1515;7198
1515;7201
1516;7203
1503;7205
1493;7208
1486;7211
1474;7214
1497;7216
1524;7218
1523;7221
1514;7223
1505;7226
1488;7228
1474;7230
1466;7233
1468;7235
1489;7238
1512;7240
1522;7243
1531;7245
1530;7247
1514;7250
1498;7252
1489;7256
1477;7258
1482;7260
1514;7263
1528;7265
1510;7268
1501;7270
1500;7272
1498;7275
1502;7277
1498;7280
1502;7282
1512;7284
1509;7287
1505;7289
1506;7292
1502;7294
1509;7297
1524;7300
1540;7302
1543;7305
1518;7307
1495;7310
1490;7312
1491;7314
1498;7317
1499;7319
1493;7322
1485;7324
1485;7326
1495;7329
1502;7331
1498;7334
1495;7336
1511;7339
1516;7342
1514;7344
1503;7347
1500;7349
1494;7351
1483;7354
1479;7356
1494;7359
1530;7361
1547;7363
1533;7366
1516;7368
1511;7371
1507;7373
1510;7376
1516;7378
1510;7380
1512;7384
1516;7386
1507;7389
1513;7391
1519;7393
1517;7396
1515;7398
1513;7401
1511;7403
1506;7405
1496;7408
1489;7410
1484;7413
1475;7415
1477;7417
1502;7420
1513;7422
1505;7426
1503;7428
1501;7430
1501;7433
1504;7435
1508;7438
1502;7440
1504;7443
1509;7445
1511;7447
1508;7450
1496;7452
1489;7455
1503;7457
1514;7459
1508;7462
1505;7464
1502;7468
1503;7470
1506;7472
1501;7475
1499;7477
1496;7480
1497;7482
1508;7484
1507;7487
1497;7489
1490;7492
1491;7494
1494;7496
1487;7499
1490;7501
1501;7504
1499;7506
1485;7510
1484;7512
1480;7514
1477;7517
1491;7519
1508;7522
1514;7524
1511;7526
1499;7529
1488;7531
1482;7534
1491;7536
1504;7538
1505;7541
1501;7543
1487;7546
1473;7548
1476;7550
1490;7554
1496;7556
1499;7559
1508;7561
1509;7563
1499;7566
1488;7568
1485;7571
1484;7573
1483;7576
1487;7578
1485;7580
1486;7583
1497;7585
1499;7588
1500;7590
1509;7592
1520;7596
1521;7598
1529;7601
1525;7603
1516;7605
1504;7608
1494;7610
1485;7613
1482;7615
1488;7617
1488;7620
1472;7622
1479;7625
1489;7627
1490;7629
1500;7632
1521;7634
1530;7638
1533;7640
1534;7643
1528;7645
1495;7647
1479;7650
1486;7652
1493;7655
1500;7657
1502;7659
1510;7662
1516;7664
1512;7667
1502;7669
1493;7671
1490;7674
1492;7676
1503;7680
1518;7682
1526;7684
1513;7687
1515;7689
1529;7692
1518;7694
1515;7696
1527;7699
1528;7701
1529;7704
1528;7706
1517;7709
1504;7711
1496;7713
1503;7716
1509;7718
1510;7721
1516;7724
1516;7726
1508;7729
1509;7731
1507;7734
1502;7736
1470;7738
1494;7741
1527;7743
1554;7746
1558;7748
1546;7750
1539;7753
1545;7755
1502;7758
1515;7760
1552;7762
1562;7766
1553;7768
1551;7771
1534;7773
1508;7775
1497;7778
1468;7780
1466;7783
1482;7785
1487;7788
1489;7790
1488;7792
1485;7795
1483;7797
1493;7800
1526;7802
1547;7804
1539;7808
1525;7810
1516;7813
1503;7815
1501;7817
1499;7820
1496;7822
1486;7825
1499;7827
1508;7829
1496;7832
1482;7834
1455;7837
1491;7839
1534;7841
1514;7844
1503;7846
1506;7849
1502;7852
1493;7855
1492;7857
1496;7859
1494;7862
1477;7864
1477;7867
1484;7869
1499;7871
1508;7874
1508;7876
1506;7879
1504;7881
1509;7883
1506;7886
1500;7888
1504;7891
1493;7894
1478;7896
1506;7899
1539;7901
1538;7904
1523;7906
1504;7908
1497;7911
1491;7913
1493;7916
1498;7918
1507;7921
1505;7923
1514;7925
1511;7928
1495;7930
1492;7933
1508;7936
1512;7938
1505;7941
1511;7943
1507;7946
1500;7948
1498;7950
1497;7953
1487;7955
1500;7958
1513;7960
1513;7962
1521;7965
1523;7967
1527;7970
1514;7972
1492;7974
1466;7977
1447;7980
1466;7983
1486;7985
1492;7988
1486;7990
1499;7992
1514;7995
1516;7997
1512;8000
1516;8002
1516;8004
1502;8007
1487;8009
1488;8012
1496;8014
1497;8016
1499;8019
1491;8022
1489;8025
1486;8027
1484;8029
1484;8032
1485;8034
1483;8037
1485;8039
1493;8041
1490;8044
1478;8046
1454;8049
1489;8051
1506;8053
1502;8056
1500;8058
1503;8061
1501;8064
1489;8066
1472;8069
1471;8071
1472;8074
1462;8076
1473;8078
1486;8081
1493;8083
1489;8086
1487;8088
1483;8091
1470;8093
1436;8095
1461;8098
1500;8100
1515;8103
1503;8105
1482;8108
1446;8111
1441;8113
1484;8116
1509;8118
1499;8120
1494;8123
1487;8125
1473;8128
1467;8130
1459;8132
1467;8135
1491;8137
1499;8140
1498;8142
1490;8144
1456;8147
1449;8150
1473;8153
1486;8155
1490;8157
1488;8160
1488;8162
1482;8165
1465;8167
1459;8169
1463;8172
1467;8174
1477;8177
1497;8179
1500;8182
1487;8184
1475;8186
1460;8189
1446;8192
1438;8195
1448;8197
1454;8199
1442;8202
1452;8204
1484;8207
1508;8209
1503;8211
1473;8214
1471;8216
1487;8219
1496;8221
1495;8223
1482;8226
1470;8228
1463;8231
1446;8233
1453;8236
1471;8239
1480;8241
1484;8244
1479;8246
1468;8248
1460;8251
1453;8253
1450;8256
1453;8258
1459;8261
1466;8263
1473;8265
1477;8268
1474;8270
1465;8273
1473;8275
1480;8278
1469;8281
1472;8283
1481;8286
1481;8288
1482;8290
1483;8293
1476;8295
1492;8298
1508;8300
1499;8302
1484;8305
1471;8307
1450;8310
1442;8312
1451;8314
1470;8317
1474;8320
1469;8323
1464;8325
1459;8327
1454;8330
1455;8332
1459;8335
1463;8337
1464;8340
1461;8342
1464;8344
1461;8347
1460;8349
1462;8352
1458;8354
1440;8356
1445;8359
1483;8361
1507;8365
1513;8367
1500;8369
1474;8372
1456;8374
1449;8377
1445;8379
1460;8381
1488;8384
1496;8386
1486;8389
1476;8391
1465;8393
1463;8396
1464;8398
1456;8401
1477;8403
1489;8406
1480;8409
1471;8411
1471;8414
1473;8416
1475;8418
1470;8421
1463;8423
1483;8426
1493;8428
1490;8431
1479;8433
1478;8435
1489;8438
1500;8440
1501;8443
1493;8445
1481;8448
1475;8451
1469;8453
1466;8456
1471;8458
1485;8460
1472;8463
1485;8465
1498;8468
1499;8470
1492;8472
1486;8475
1482;8477
1479;8480
1476;8482
1473;8484
1470;8487
1479;8489
1476;8493
1472;8495
1477;8497
1479;8500
1479;8502
1475;8505
1466;8507
1467;8510
1475;8512
1481;8514
1489;8517
1493;8519
1491;8522
1483;8524
1479;8526
1476;8529
1472;8531
1471;8535
1471;8537
1485;8539
1497;8542
1505;8544
1513;8547
1519;8549
1511;8551
1483;8554
1492;8556
1511;8559
1513;8561
1504;8563
1504;8566
1506;8568
1501;8571
1487;8573
1482;8576
1482;8579
1498;8581
1490;8584
1485;8586
1500;8589
1511;8591
1490;8593
1474;8596
1466;8598
1461;8601
1461;8603
1445;8605
1449;8608
1463;8610
1474;8613
1485;8615
1499;8617
1493;8621
1481;8623
1478;8626
1472;8628
1466;8630
1458;8633
1445;8635
1442;8638
1469;8640
1486;8642
1481;8645
1475;8647
1466;8650
1458;8652
1462;8655
1469;8657
1457;8659
1455;8663
1475;8665
1483;8668
1485;8670
1481;8672
1469;8675
1460;8677
1455;8680
1466;8682
1481;8684
1482;8687
1462;8689
1464;8692
1471;8694
1470;8696
1471;8699
1472;8701
1480;8705
1486;8707
1485;8709
1473;8712
1462;8714
1463;8717
1481;8719
1498;8721
1481;8724
1475;8726
1476;8729
1475;8731
1454;8734
1472;8736
1497;8738
1495;8741
1488;8743
1482;8747
1471;8749
1463;8751
1464;8754
1464;8756
1469;8759
1474;8761
1495;8763
1528;8766
1518;8768
1495;8771
1472;8773
1462;8775
1463;8778
1474;8780
1485;8783
1504;8785
1522;8787
1515;8791
1475;8793
1467;8796
1504;8798
1510;8800
1512;8803
1517;8805
1507;8808
1492;8810
1483;8813
1482;8815
1481;8817
1486;8820
1495;8822
1498;8825
1492;8827
1486;8829
1486;8833
1496;8835
1507;8838
1505;8840
1501;8842
1498;8845
1492;8847
1475;8850
1464;8852
1484;8854
1493;8857
1492;8859
1500;8862
1510;8864
1513;8866
1508;8869
1491;8871
1479;8875
1490;8877
1515;8880
1519;8882
1512;8884
1508;8887
1501;8889
1502;8892
1503;8894
1508;8896
1500;8899
1493;8901
1502;8904
1504;8906
1501;8908
1495;8911
1499;8913
1508;8916
1512;8919
1510;8921
1505;8924
1514;8926
1517;8929
1509;8931
1489;8933
1499;8936
1523;8938
1531;8941
1532;8943
1537;8946
1514;8948
1507;8950
1506;8953
1493;8955
1483;8958
1495;8961
1511;8963
1528;8966
1527;8968
1523;8971
1519;8973
1526;8975
1509;8978
1527;8980
1558;8983
1552;8985
1525;8987
1509;8990
1502;8992
1497;8995
1515;8997
1542;8999
1544;9003
1535;9005
1516;9008
1516;9010
1522;9012
1512;9015
1520;9017
1524;9020
1535;9022
1544;9025
1547;9027
1542;9029
1529;9032
1521;9034
1527;9037
1528;9039
1536;9041
1540;9044
1533;9047
1521;9050
1518;9052
1526;9054
1523;9057
1532;9059
1546;9062
1524;9064
1534;9066
1558;9069
1561;9071
1550;9074
1544;9076
1542;9078
1540;9081
1537;9083
1544;9086
1549;9089
1539;9092
1522;9094
1528;9096
1539;9099
1549;9101
1541;9104
1561;9106
1576;9108
1542;9111
1534;9113
1559;9116
1566;9118
1563;9120
1566;9123
1566;9125
1563;9128
1559;9131
1552;9133
1543;9136
1552;9138
1567;9141
1576;9143
1568;9145
1556;9148
1550;9150
1541;9153
1539;9155
1541;9158
1559;9160
1566;9162
1574;9165
1573;9167
1559;9170
1544;9172
1546;9175
1556;9178
1555;9180
1552;9183
1546;9185
1537;9187
1510;9190
1496;9192
1502;9195
1533;9197
1554;9199
1557;9202
1557;9204
1549;9207
1534;9209
1535;9211
1538;9214
1536;9217
1536;9220
1543;9222
1545;9225
1539;9227
1540;9229
1541;9232
1539;9234
1540;9237
1547;9239
1541;9241
1517;9244
1526;9246
1527;9249
1504;9251
1482;9253
1494;9256
1533;9259
1548;9262
1541;9264
1533;9266
1534;9269
1528;9271
1531;9274
1534;9276
1529;9278
1524;9281
1519;9283
1509;9286
1496;9288
1488;9291
1485;9293
1490;9295
1499;9298
1493;9300
1518;9304
1549;9306
1538;9308
1521;9311
1509;9313
1498;9316
1497;9318
1501;9320
1492;9323
1477;9325
1485;9328
1496;9330
1493;9332
1503;9335
1516;9337
1507;9340
1499;9342
1498;9345
1493;9348
1492;9350
1491;9353
1479;9355
1481;9358
1490;9360
1491;9362
1488;9365
1484;9367
1487;9370
1486;9372
1477;9374
1476;9377
1479;9379
1477;9382
1479;9384
1497;9387
1501;9390
1483;9392
1469;9395
1470;9397
1477;9399
1480;9402
1478;9404
1473;9407
1461;9409
1459;9411
1466;9414
1466;9416
1461;9419
1456;9421
1471;9424
1481;9426
1472;9428
1466;9432
1464;9434
1466;9437
1466;9439
1466;9441
1463;9444
1460;9446
1452;9449
1443;9451
1435;9453
1432;9456
1436;9458
1440;9461
1447;9463
1449;9465
1447;9468
1444;9470
1444;9474
1449;9476
1458;9478
1462;9481
1449;9483
1445;9486
1449;9488
1455;9491
1454;9493
1468;9495
1483;9498
1475;9500
1465;9503
1483;9505
1481;9507
1464;9510
1451;9512
1441;9516
1442;9518
1443;9520
1440;9523
1427;9525
1423;9528
1423;9530
1424;9532
1424;9535
1430;9537
1443;9540
1452;9542
1453;9544
1447;9547
1429;9549
1425;9552
1431;9554
1440;9558
1448;9560
1449;9562
1444;9565
1445;9567
1453;9570
1465;9572
1462;9574
1462;9577
1466;9579
1467;9582
1474;9584
1448;9586
1460;9589
1478;9591
1475;9594
1469;9596
1472;9598
1471;9602
1467;9604
1464;9607
1456;9609
1451;9611
1455;9614
1463;9616
1471;9619
1478;9621
1479;9623
1483;9626
1484;9628
1467;9631
1451;9633
1444;9636
1467;9638
1484;9640
1485;9644
1484;9646
1481;9649
1479;9651
1457;9653
1468;9656
1489;9658
1496;9661
1495;9663
1498;9665
1490;9668
1480;9670
1475;9673
1474;9675
1480;9677
1486;9680
1491;9682
1493;9686
1491;9688
1489;9690
1491;9693
1491;9695
1490;9698
1487;9700
1484;9702
1490;9705
1492;9707
1490;9710
1475;9712
1476;9715
1505;9717
1515;9719
1511;9722
1509;9724
1505;9728
1488;9730
1488;9732
1504;9735
1514;9737
1512;9740
1512;9742
1520;9744
1525;9747
1515;9749
1500;9752
1500;9754
1516;9756
1517;9759
1521;9761
1532;9764
1529;9766
1517;9768
1506;9772
1498;9774
1495;9777
1488;9779
1505;9782
1521;9784
1501;9786
1502;9789
1517;9791
1514;9794
1502;9796
1498;9798
1495;9801
1494;9803
1505;9806
1517;9808
1517;9810
1504;9814
1495;9816
1505;9819
1499;9821
1507;9823
1522;9826
1516;9828
1513;9831
1516;9833
1512;9835
1507;9838
1506;9840
1498;9843
1486;9845
1479;9847
1476;9850
1470;9852
1484;9856
1497;9858
1501;9861
1502;9863
1499;9865
1489;9868
1467;9870
1443;9873
1465;9875
1497;9877
1502;9880
1496;9882
1496;9885
1492;9887
1489;9889
1488;9892
1486;9894
1494;9897
1505;9900
1508;9902
1504;9905
1490;9907
1483;9910
1484;9912
1478;9914
1475;9917
1477;9919
1468;9922
1475;9924
1482;9927
1487;9929
1482;9931
1460;9934
1464;9936
1478;9939
1494;9942
1509;9944
1512;9947
1505;9949
1494;9952
1479;9954
1458;9956
1461;9959
1481;9961
1485;9964
1472;9966
1462;9968
1456;9971
1454;9973
1457;9976
1465;9978
1470;9980
1473;9984
1467;9986
1473;9989
1485;9991
1483;9994
1475;9996
1475;9998
1493;10001
1500;10003
1503;10006
1485;10008
1458;10011
1472;10013
1491;10015
1485;10018
1479;10020
1482;10023
1482;10025
1472;10029
1460;10031
1457;10034
1466;10036
1476;10039
1483;10041
1483;10043
1480;10046
1469;10048
1453;10051
1449;10053
1468;10056
1479;10058
1474;10061
1470;10063
1475;10066
1476;10068
1471;10072
1462;10074
1463;10076
1471;10079
1479;10081
1483;10084
1481;10086
1463;10089
1471;10091
1487;10094
1483;10096
1483;10099
1500;10101
1503;10103
1496;10106
1492;10108
1481;10112
1471;10114
1469;10117
1471;10119
1476;10122
1474;10124
1453;10127
1464;10129
1483;10131
1480;10134
1477;10136
1478;10139
1475;10141
1475;10144
1483;10146
1483;10149
1488;10151
1491;10155
1486;10157
1476;10160
1484;10162
1496;10164
1500;10167
1496;10169
1495;10172
1493;10174
1491;10177
1481;10179
1478;10182
1498;10184
1498;10187
1486;10189
1481;10191
1476;10194
1475;10196
1463;10200
1470;10202
1481;10205
1494;10207
1496;10210
1489;10212
1476;10215
1473;10217
1474;10219
1475;10222
1481;10224
1484;10227
1483;10229
1478;10232
1481;10234
1493;10237
1500;10240
1503;10243
1501;10245
1494;10248
1488;10250
1482;10252
1496;10255
1515;10257
1513;10260
1501;10262
1510;10265
1529;10267
1525;10270
1506;10272
1491;10275
1487;10277
1487;10279
1494;10283
1495;10285
1446;10288
1448;10290
1486;10293
1502;10295
1501;10298
1499;10300
1509;10303
1512;10305
1513;10307
1518;10310
1512;10312
1501;10315
1509;10317
1520;10320
1518;10322
1508;10326
1497;10328
1492;10331
1491;10333
1488;10335
1494;10338
1496;10340
1486;10343
1493;10345
1498;10348
1497;10350
1507;10353
1513;10355
1514;10358
1520;10360
1517;10363
1513;10365
1499;10368
1492;10371
1507;10373
1514;10376
1508;10378
1505;10381
1517;10383
1533;10386
1520;10388
1486;10391
1471;10393
1483;10395
1494;10398
1497;10400
1494;10403
1492;10405
1496;10408
1495;10411
1488;10414
1496;10416
1508;10419
1509;10421
1504;10423
1490;10426
1477;10428
1498;10431
1518;10433
1513;10436
1518;10438
1531;10441
1530;10443
1519;10446
1502;10448
1490;10450
1482;10454
1485;10456
1490;10459
1493;10461
1503;10464
1516;10466
1518;10469
1520;10471
1508;10474
1497;10476
1491;10479
1482;10481
1487;10483
1487;10486
1481;10488
1473;10491
1470;10493
1479;10497
1492;10499
1500;10502
1490;10504
1489;10507
1490;10509
1487;10511
1476;10514
1467;10516
1480;10519
1496;10521
1497;10524
1487;10526
1469;10529
1479;10531
1490;10534
1492;10536
1490;10539
1479;10542
1483;10544
1489;10547
1484;10549
1487;10552
1495;10554
1500;10557
1502;10559
1502;10562
1499;10564
1493;10567
1481;10569
1484;10571
1491;10574
1492;10576
1493;10579
1494;10582
1505;10585
1513;10587
1503;10590
1496;10592
1494;10595
1491;10597
1496;10599
1501;10602
1509;10604
1501;10607
1501;10609
1506;10612
1501;10614
1500;10617
1500;10619
1487;10622
1489;10625
1509;10627
1514;10630
1495;10632
1471;10635
1478;10637
1492;10640
1496;10642
1496;10645
1494;10647
1491;10650
1491;10652
1491;10654
1495;10657
1498;10659
1502;10662
1511;10664
1520;10668
1515;10670
1512;10673
1509;10675
1507;10678
1506;10680
1503;10683
1508;10685
1519;10687
1521;10690
1511;10692
1503;10695
1504;10697
1505;10700
1510;10702
1508;10705
1502;10707
1502;10711
1492;10713
1489;10715
1502;10718
1500;10720
1503;10723
1513;10725
1510;10728
1498;10730
1493;10733
1494;10735
1497;10738
1501;10740
1500;10742
1508;10745
1509;10747
1509;10750
1507;10753
1503;10756
1503;10758
1504;10761
1505;10763
1504;10766
1500;10768
1498;10771
1479;10773
1472;10775
1495;10778
1507;10780
1489;10783
1480;10785
1482;10788
1481;10790
1485;10793
1499;10796
1514;10799
1519;10801
1513;10803
1505;10806
1495;10808
1477;10811
1466;10813
1488;10816
1509;10818
1511;10821
1506;10823
1503;10826
1493;10828
1479;10830
1469;10833
1466;10835
1480;10839
1504;10841
1516;10844
1510;10846
1505;10849
1497;10851
1490;10854
1489;10856
1495;10859
1497;10861
1503;10863
1508;10866
1503;10868
1494;10871
1485;10873
1477;10876
1493;10878
1507;10882
1509;10884
1506;10887
1474;10889
1468;10891
1490;10894
1498;10896
1502;10899
1505;10901
1501;10904
1490;10906
1485;10909
1488;10911
1490;10914
1499;10916
1513;10918
1513;10921
1511;10924
1508;10927
1503;10929
1497;10932
1492;10934
1492;10937
1496;10939
1502;10942
1505;10944
1499;10947
1488;10949
1490;10951
1498;10954
1494;10956
1499;10959
1508;10961
1510;10964
1508;10967
1493;10970
1482;10972
1488;10975
1498;10977
1508;10979
1506;10982
1504;10984
1498;10987
1494;10989
1492;10992
1487;10994
1486;10997
1492;10999
1492;11002
1494;11004
1496;11006
1490;11010
1485;11012
1480;11015
1483;11017
1498;11020
1506;11022
1508;11025
1496;11027
1486;11030
1496;11032
1503;11034
1500;11037
1509;11039
1519;11042
1507;11044
1501;11047
1511;11049
1501;11053
1487;11055
1487;11058
1492;11060
1497;11063
1500;11065
1491;11067
1485;11070
1485;11072
1481;11075
1483;11077
1491;11080
1500;11082
1507;11085
1507;11087
1493;11090
1482;11092
1487;11095
1499;11098
1508;11100
1507;11103
1504;11105
1501;11108
1495;11110
1489;11113
1482;11115
1484;11118
1489;11120
1480;11122
1499;11125
1510;11127
1506;11130
1489;11132
1481;11136
1480;11138
1492;11141
1495;11143
1497;11146
1507;11148
1505;11151
1492;11153
1486;11155
1479;11158
1487;11160
1497;11163
1502;11165
1497;11168
1488;11170
1489;11173
1499;11175
1507;11179
1511;11181
1514;11183
1512;11186
1506;11188
1501;11191
1497;11193
1489;11196
1492;11198
1501;11201
1506;11203
1504;11206
1491;11208
1482;11210
1482;11213
1495;11215
1506;11218
1507;11220
1503;11224
1502;11226
1500;11229
1492;11231
1495;11234
1501;11236
1505;11239
1508;11241
1508;11243
1507;11246
1508;11248
1502;11251
1506;11253
1506;11256
1505;11258
1507;11261
1506;11264
1503;11267
1494;11269
1488;11271
1487;11274
1489;11276
1490;11279
1483;11281
1481;11284
1479;11286
1474;11289
1472;11291
1469;11294
1473;11296
1496;11298
1520;11301
1533;11303
1538;11307
1540;11309
1525;11312
1502;11314
1492;11317
1491;11319
1483;11322
1473;11324
1491;11326
1498;11329
1486;11331
1479;11334
1476;11336
1482;11339
1486;11341
1489;11344
1488;11346
1480;11350
1473;11352
1470;11355
1474;11357
1478;11359
1478;11362
1483;11364
1488;11367
1488;11369
1491;11372
1483;11374
1474;11377
1489;11379
1502;11382
1507;11384
1499;11386
1493;11389
1492;11392
1476;11395
1484;11397
1500;11400
1497;11402
1488;11405
1483;11407
1476;11410
1469;11412
1464;11414
1463;11417
1464;11419
1471;11422
1485;11424
1493;11427
1493;11429
1486;11432
1477;11435
1476;11438
1480;11440
1482;11443
1484;11445
1483;11447
1474;11450
1465;11452
1465;11455
1472;11457
1479;11460
1482;11462
1482;11465
1481;11467
1482;11470
1483;11472
1488;11474
1504;11478
1516;11480
1505;11483
1496;11485
1486;11488
1478;11490
1475;11493
1477;11495
1482;11498
1487;11500
1484;11502
1481;11505
1494;11507
1498;11510
1481;11512
1474;11515
1479;11517
1483;11521
1487;11523
1489;11526
1487;11528
1479;11531
1478;11533
1484;11535
1499;11538
1506;11540
1497;11543
1497;11545
1501;11548
1499;11550
1492;11553
1490;11555
1486;11558
1481;11560
1495;11563
1516;11566
1514;11568
1502;11571
1492;11573
1484;11576
1489;11578
1493;11581
1487;11583
1489;11586
1497;11588
1498;11590
1503;11593
1506;11595
1512;11598
1510;11600
1511;11603
1512;11606
1507;11609
1498;11611
1489;11614
1486;11616
1489;11618
1494;11621
1506;11623
1514;11626
1503;11628
1502;11631
1507;11633
1505;11636
1502;11638
1495;11641
1489;11643
1501;11646
1507;11649
1501;11651
1492;11654
1492;11656
1504;11659
1504;11661
1507;11664
1514;11666
1508;11669
1496;11671
1490;11674
1485;11676
1495;11678
1507;11681
1510;11683
1506;11686
1504;11688
1494;11692
1489;11694
1496;11697
1496;11699
1496;11702
1502;11704
1507;11706
1498;11709
1500;11711
1505;11714
1507;11716
1515;11719
1523;11721
1517;11724
1506;11726
1495;11729
1485;11731
1472;11735
1473;11737
1496;11739
1513;11742
1519;11744
1514;11747
1508;11749
1499;11752
1483;11754
1467;11757
1476;11759
1491;11762
1499;11764
1497;11766
1492;11769
1494;11771
1494;11774
1487;11777
1486;11780
1496;11782
1506;11785
1487;11787
1475;11790
1483;11792
1481;11794
1488;11797
1506;11799
1511;11802
1504;11804
1509;11807
1513;11809
1509;11812
1500;11814
1499;11817
1501;11820
1501;11822
1502;11825
1496;11827
1496;11830
1503;11832
1499;11835
1494;11837
1493;11840
1490;11842
1499;11845
1497;11847
1494;11850
1490;11852
1487;11854
1490;11857
1495;11859
1492;11863
1497;11865
1503;11868
1497;11870
1493;11873
1501;11875
1514;11878
1518;11880
1534;11882
1546;11885
1526;11887
1500;11890
1489;11892
1489;11895
1494;11897
1498;11900
1498;11902
1497;11906
1493;11908
1490;11910
1491;11913
1490;11915
1486;11918
1495;11920
1506;11923
1513;11925
1510;11928
1492;11930
1483;11933
1487;11935
1500;11938
1514;11940
1514;11942
1520;11945
1526;11948
1524;11951
1514;11953
1507;11956
1511;11958
1511;11961
1505;11963
1501;11966
1494;11968
1479;11970
1482;11973
1498;11975
1492;11978
1491;11980
1506;11983
1510;11985
1499;11988
1490;11991
1481;11994
1477;11996
1479;11998
1488;12001
1500;12003
1505;12006
1496;12008
1491;12011
1493;12013
1498;12016
1501;12018
1501;12021
1504;12023
1493;12026
1490;12028
1498;12030
1491;12034
1490;12036
1506;12039
1505;12041
1509;12044
1516;12046
1514;12049
1499;12051
1485;12054
1456;12056
1463;12058
1502;12061
1522;12063
1517;12066
1504;12068
1497;12071
1495;12073
1505;12077
1516;12079
1512;12082
1506;12084
1498;12086
1489;12089
1485;12091
1486;12094
1476;12096
1491;12099
1511;12101
1524;12104
1525;12106
1519;12109
1507;12111
1499;12114
1498;12116
1504;12119
1501;12122
1510;12124
1529;12127
1526;12129
1511;12132
1498;12134
1493;12137
1498;12139
1501;12142
1513;12144
1531;12146
1542;12149
1540;12151
1530;12154
1516;12156
1512;12160
1512;12162
1515;12165
1515;12167
1509;12170
1507;12172
1501;12174
1493;12177
1488;12179
1486;12182
1487;12184
1486;12187
1478;12189
1472;12192
1467;12194
1468;12197
1474;12199
1478;12203
1479;12205
1481;12207
1479;12210
1480;12212
1482;12215
1480;12217
1486;12220
1494;12222
1512;12225
1523;12227
1517;12230
1499;12232
1480;12234
1471;12237
1468;12239
1472;12242
1480;12244
1484;12248
1482;12250
1483;12253
1487;12255
1484;12258
1481;12260
1477;12262
1473;12265
1470;12267
1476;12270
1482;12272
1482;12275
1486;12277
1495;12280
1499;12282
1495;12285
1483;12288
1473;12291
1472;12293
1475;12295
1480;12298
1483;12300
1491;12303
1491;12305
1486;12308
1480;12310
1473;12313
1476;12315
1487;12318
1492;12320
1493;12322
1497;12325
1493;12327
1481;12331
1472;12333
1462;12336
1468;12338
1474;12341
1474;12343
1478;12346
1478;12348
1466;12350
1465;12353
1479;12355
1492;12358
1496;12360
1496;12363
1496;12365
1491;12368
1478;12370
1468;12374
1466;12376
1484;12378
1495;12381
1494;12383
1495;12386
1495;12388
1481;12391
1466;12393
1475;12396
1496;12398
1498;12401
1497;12403
1491;12406
1481;12408
1475;12410
1472;12413
1464;12416
1461;12419
1480;12421
1492;12424
1499;12426
1501;12429
1502;12431
1494;12434
1483;12436
1481;12438
1477;12441
1473;12443
1475;12446
1475;12448
1473;12451
1471;12453
1475;12456
1481;12459
1483;12462
1485;12464
1484;12466
1483;12469
1481;12471
1476;12474
1475;12476
1481;12479
1483;12481
1482;12484
1469;12486
1464;12489
1461;12491
1461;12494
1476;12496
1488;12498
1491;12502
1477;12504
1481;12507
1489;12509
1461;12512
1457;12514
1472;12517
1495;12519
1502;12522
1488;12524
1486;12526
1483;12529
1477;12531
1469;12534
1462;12536
1465;12539
1471;12541
1475;12545
1477;12547
1473;12550
1454;12552
1460;12554
1452;12557
1475;12559
1516;12562
1526;12564
1506;12567
1494;12569
1489;12572
1478;12574
1480;12577
1485;12579
1481;12582
1470;12584
1469;12587
1463;12590
1468;12592
1483;12595
1494;12597
1495;12600
1496;12602
1495;12605
1492;12607
1480;12610
1470;12612
1469;12614
1476;12617
1481;12619
1479;12622
1482;12624
1486;12627
1481;12630
1462;12633
1452;12635
1473;12638
1482;12640
1478;12642
1492;12645
1507;12647
1492;12650
1481;12652
1478;12655
1490;12657
1501;12660
1507;12662
1509;12665
1500;12667
1492;12669
1490;12673
1484;12675
1491;12678
1482;12680
1492;12683
1515;12685
1520;12688
1511;12690
1505;12693
1502;12695
1507;12698
1513;12700
1511;12702
1511;12705
1516;12707
1506;12710
1491;12712
1501;12716
1521;12718
1535;12721
1535;12723
1530;12726
1519;12728
1500;12730
1489;12733
1499;12735
1509;12738
1517;12740
1512;12743
1515;12745
1520;12748
1526;12750
1530;12753
1519;12755
1507;12758
1502;12761
1501;12763
1499;12766
1484;12768
1482;12771
1493;12773
1497;12776
1499;12778
1499;12781
1492;12783
1505;12786
1514;12788
1510;12790
1502;12793
1496;12795
1491;12798
1484;12801
1509;12804
1533;12806
1539;12809
1546;12811
1545;12814
1520;12816
1510;12818
1515;12821
1513;12823
1511;12826
1515;12828
1518;12831
1520;12833
1520;12836
1525;12838
1528;12841
1525;12844
1521;12846
1514;12849
1494;12851
1492;12854
1507;12856
1513;12859
1507;12861
1505;12864
1506;12866
1503;12869
1499;12871
1495;12874
1495;12876
1501;12878
1496;12881
1484;12883
1492;12887
1501;12889
1502;12892
1493;12894
1487;12897
1490;12899
1495;12902
1505;12904
1510;12906
1509;12909
1508;12911
1503;12914
1484;12916
1490;12919
1508;12921
1523;12924
1526;12926
1508;12930
1493;12932
1480;12934
1473;12937
1482;12939
1491;12942
1493;12944
1489;12947
1485;12949
1490;12952
1495;12954
1495;12957
1498;12959
1497;12962
1493;12964
1478;12966
1467;12969
1464;12972
1460;12975
1468;12977
1486;12980
1491;12982
1492;12985
1493;12987
1493;12990
1491;12992
1485;12994
1479;12997
1477;12999
1477;13002
1483;13004
1490;13007
1486;13009
1472;13012
1465;13015
1466;13018
1468;13020
1470;13022
1483;13025
1492;13027
1495;13030
1485;13032
1492;13035
1511;13037
1514;13040
1506;13042
1498;13045
1487;13047
1476;13050
1468;13052
1463;13054
1467;13058
1472;13060
1473;13063
1482;13065
1488;13068
1490;13070
1484;13073
1475;13075
1478;13078
1480;13080
1480;13082
1479;13085
1472;13087
1463;13090
1459;13092
1443;13095
1450;13097
1464;13101
1471;13103
1471;13106
1472;13108
1469;13110
1469;13113
1465;13115
1461;13118
1451;13120
1456;13123
1463;13125
1469;13128
1476;13130
1472;13133
1463;13135
1467;13137
1475;13140
1473;13143
1468;13146
1475;13148
1469;13151
1451;13153
1438;13156
1445;13158
1456;13161
1462;13163
1462;13166
1461;13168
1468;13170
1470;13173
1459;13175
1453;13178
1462;13180
1481;13184
1491;13186
1485;13189
1473;13191
1453;13194
1449;13196
1461;13198
1468;13201
1465;13203
1466;13206
1460;13208
1458;13211
1458;13213
1457;13216
1453;13218
1443;13221
1455;13223
1467;13225
1463;13229
1455;13231
1450;13234
1443;13236
1446;13239
1458;13241
1470;13244
1475;13246
1470;13249
1464;13251
1456;13254
1454;13256
1466;13258
1473;13261
1470;13263
1458;13266
1447;13268
1446;13272
1445;13274
1442;13277
1445;13279
1459;13282
1468;13284
1473;13286
1470;13289
1461;13291
1446;13294
1438;13296
1443;13299
1450;13301
1455;13304
1441;13306
1425;13309
1440;13312
1457;13314
1458;13317
1460;13319
1467;13322
1468;13324
1472;13327
1467;13329
1457;13332
1451;13334
1449;13337
1457;13339
1472;13341
1485;13344
1494;13346
1486;13349
1483;13351
1477;13355
1465;13357
1462;13360
1458;13362
1445;13365
1428;13367
1433;13370
1445;13372
1452;13374
1454;13377
1457;13379
1456;13382
1461;13384
1466;13387
1461;13389
1454;13392
1451;13394
1448;13398
1448;13400
1456;13402
1466;13405
1469;13407
1466;13410
1463;13412
1461;13415
1470;13417
1480;13420
1484;13422
1481;13425
1475;13427
1452;13429
1441;13432
1449;13434
1456;13437
1467;13440
1470;13443
1472;13445
1470;13448
1470;13450
1470;13453
1465;13455
1461;13458
1461;13460
1460;13462
1461;13465
1460;13467
1456;13470
1448;13472
1440;13475
1444;13477
1467;13480
1478;13483
1477;13486
1470;13488
1463;13490
1468;13493
1474;13495
1465;13498
1468;13500
1481;13503
1490;13505
1482;13508
1475;13510
1455;13513
1437;13515
1423;13517
1430;13520
1454;13522
1493;13526
1510;13528
1504;13531
1500;13533
1501;13536
1509;13538
1510;13541
1504;13543
1498;13545
1491;13548
1486;13550
1485;13553
1481;13555
1487;13558
1499;13560
1503;13563
1501;13565
1479;13569
1478;13571
1493;13574
1508;13576
1511;13578
1510;13581
1511;13583
1520;13586
1524;13588
1508;13591
1497;13593
1492;13596
1487;13598
1488;13601
1504;13603
1524;13605
1525;13608
1515;13611
1504;13614
1502;13616
1510;13619
1514;13621
1509;13624
1508;13626
1502;13629
1499;13631
1501;13633
1504;13636
1507;13638
1500;13641
1498;13643
1513;13646
1507;13648
1492;13651
1501;13654
1508;13657
1508;13659
1504;13662
1494;13664
1493;13666
1495;13669
1497;13671
1497;13674
1496;13676
1502;13679
1501;13681
1488;13684
1497;13686
1513;13689
1507;13691
1494;13693
1493;13697
1499;13699
1500;13702
1499;13704
1497;13707
1489;13709
1483;13712
1478;13714
1480;13717
1491;13719
1497;13721
1496;13724
1483;13726
1476;13729
1486;13731
1491;13734
1481;13736
1473;13740
1474;13742
1485;13745
1476;13747
1458;13750
1468;13752
1465;13754
1472;13757
1480;13759
1489;13762
1494;13764
1492;13767
1504;13769
1495;13772
1482;13774
1494;13777
1506;13779
1490;13782
1488;13785
1492;13787
1489;13790
1484;13792
1476;13795
1481;13797
1509;13800
1519;13802
1512;13805
1502;13807
1491;13809
1482;13812
1479;13814
1483;13817
1476;13819
1467;13822
1460;13825
1474;13828
1484;13830
1463;13833
1453;13835
1480;13837
1501;13840
1503;13842
1485;13845
1484;13847
1491;13850
1504;13852
1501;13855
1499;13857
1503;13860
1505;13862
1500;13865
1495;13868
1483;13870
1469;13873
1472;13875
1486;13878
1491;13880
1497;13883
1505;13885
1496;13888
1488;13890
1491;13893
1465;13895
1439;13897
1449;13900
1490;13902
1520;13905
1520;13907
1513;13911
1511;13913
1494;13916
1482;13918
1488;13921
1479;13923
1472;13925
1497;13928
1513;13930
1506;13933
1489;13935
1478;13938
1479;13940
1483;13943
1486;13945
1491;13948
1495;13950
1493;13954
1466;13956
1471;13958
1504;13961
1518;13963
1512;13966
1510;13968
1499;13971
1502;13973
1505;13976
1506;13978
1504;13981
1510;13983
1519;13985
1517;13988
1507;13990
1499;13993
1493;13996
1490;13999
1490;14001
1490;14004
1492;14006
1490;14009
1486;14011
1476;14013
1469;14016
1469;14018
1488;14021
1508;14023
1506;14026
1495;14028
1466;14031
1463;14033
1483;14036
1492;14039
1487;14042
1493;14044
1497;14046
1494;14049
1483;14051
1483;14054
1487;14056
1495;14059
1498;14061
1495;14064
1489;14066
1483;14069
1475;14071
1436;14073
1442;14076
1475;14078
1491;14082
1487;14084
1484;14087
1478;14089
1472;14092
1455;14094
1439;14097
1457;14099
1479;14101
1479;14104
1465;14106
1455;14109
1454;14111
1453;14114
1457;14116
1465;14119
1462;14121
1452;14125
1460;14127
1466;14129
1462;14132
1459;14134
1470;14137
1481;14139
1481;14142
1479;14144
1469;14147
1462;14149
1461;14152
1452;14154
1456;14157
1476;14159
1468;14161
1477;14164
1486;14167
1479;14170
1466;14172
1457;14175
1454;14177
1461;14180
1469;14182
1471;14185
1470;14187
1464;14189
1456;14192
1448;14194
1454;14197
1478;14199
1485;14202
1457;14204
1448;14208
1460;14210
1463;14213
1475;14215
1489;14217
1492;14220
1484;14222
1464;14225
1465;14227
1473;14230
1473;14232
1468;14235
1465;14237
1467;14240
1469;14242
1472;14245
1474;14247
1462;14249
1458;14253
1457;14255
1456;14258
1455;14260
1470;14263
1492;14265
1488;14268
1472;14270
1457;14273
1455;14275
1467;14277
1476;14280
1472;14282
1470;14285
1467;14287
1463;14290
1458;14292
1452;14296
1436;14298
1436;14301
1458;14303
1476;14305
1473;14308
1461;14310
1453;14313
1446;14315
1452;14318
1461;14320
1456;14323
1451;14325
1463;14328
1467;14330
1457;14333
1449;14336
1455;14338
1464;14341
1471;14343
1478;14346
1477;14348
1469;14351
1457;14353
1454;14356
1462;14358
1465;14361
1463;14363
1464;14365
1464;14368
1459;14370
1459;14373
1455;14375
1445;14379
1445;14381
1451;14384
1460;14386
1462;14389
1457;14391
1450;14393
1444;14396
1449;14398
1467;14401
1475;14403
1445;14406
1431;14408
1448;14411
1470;14413
1472;14416
1470;14418
1471;14420
1472;14424
1468;14426
1464;14429
1462;14431
1455;14434
1447;14436
1444;14439
1459;14441
1474;14444
1484;14446
1474;14449
1434;14451
1439;14453
1467;14456
1474;14458
1460;14461
1456;14464
1464;14467
1481;14469
1483;14472
1477;14474
1464;14477
1457;14479
1462;14481
1469;14484
1479;14486
1480;14489
1479;14491
1476;14494
1480;14496
1485;14499
1487;14501
1485;14504
1486;14507
1487;14509
1484;14512
1484;14514
1485;14517
1486;14519
1479;14522
1473;14524
1474;14527
1480;14529
1475;14532
1467;14534
1469;14537
1468;14539
1461;14541
1489;14544
1506;14546
1496;14550
1485;14552
1489;14555
1495;14557
1499;14560
1501;14562
1497;14565
1499;14567
1495;14569
1488;14572
1481;14574
1480;14577
1486;14579
1491;14582
1488;14584
1490;14587
1491;14589
1488;14593
1482;14595
1480;14597
1483;14600
1480;14602
1480;14605
1493;14607
1500;14610
1506;14612
1499;14615
1488;14617
1485;14620
1486;14622
1482;14624
1484;14627
1477;14629
1456;14632
1466;14635
1474;14638
1470;14640
1482;14643
1497;14645
1498;14648
1497;14650
1497;14653
1491;14655
1484;14657
1487;14660
1493;14662
1498;14665
1498;14667
1493;14670
1487;14672
1485;14675
1492;14678
1503;14681
1505;14683
1495;14685
1501;14688
1510;14690
1501;14693
1498;14695
1507;14698
1512;14700
1511;14703
1510;14705
1506;14708
1501;14710
1497;14712
1487;14715
1491;14717
1499;14721
1511;14723
1518;14726
1518;14728
1502;14731
1488;14733
1475;14736
1471;14738
1472;14741
1473;14743
1482;14745
1491;14748
1491;14750
1484;14753
1478;14755
1474;14758
1479;14760
1476;14764
1476;14766
1473;14769
1469;14771
1466;14773
1467;14776
1471;14778
1476;14781
1472;14783
1470;14786
1470;14788
1468;14791
1467;14793
1469;14796
1469;14798
1464;14800
1470;14803
1486;14806
1481;14809
1466;14811
1456;14814
1458;14816
1465;14819
1471;14821
1475;14824
1479;14826
1479;14828
1478;14831
1482;14833
1470;14836
1469;14838
1481;14841
1479;14843
1475;14846
1474;14849
1469;14852
1467;14854
1467;14857
1474;14859
1480;14861
1481;14864
1481;14866
1476;14869
1469;14871
1457;14874
1450;14876
1464;14879
1482;14881
1492;14884
1497;14886
1499;14888
1487;14892
1484;14894
1483;14897
1466;14899
1471;14902
1487;14904
1502;14907
1501;14909
1490;14912
1480;14914
1480;14916
1493;14919
1504;14921
1507;14924
1504;14926
1504;14929
1503;14931
1492;14935
1473;14937
1467;14940
1464;14942
1471;14945
1481;14947
1478;14949
1471;14952
1471;14954
1475;14957
1488;14959
1501;14962
1508;14964
1512;14967
1508;14969
1500;14972
1500;14974
1506;14977
1514;14980
1517;14982
1510;14985
1516;14987
1527;14990
1533;14992
1534;14995
1535;14997
1542;15000
1539;15002
1535;15004
1542;15007
1548;15009
1550;15012
1547;15014
1541;15017
1537;15020
1539;15023
1545;15025
1542;15028
1532;15030
1525;15032
1520;15035
1522;15037
1528;15040
1531;15042
1532;15045
1532;15047
1529;15050
1528;15052
1528;15055
1527;15057
1530;15060
1534;15063
1538;15065
1539;15068
1530;15070
1528;15073
1531;15075
1530;15078
1532;15080
1538;15083
1541;15085
1534;15088
1530;15090
1532;15092
1532;15095
1537;15097
1541;15100
1539;15102
1544;15106
1550;15108
1552;15111
1554;15113
1557;15116
1558;15118
1559;15120
1558;15123
1556;15125
1553;15128
1548;15130
1547;15133
1549;15135
1555;15138
1558;15140
1550;15143
1549;15145
1551;15149
1546;15151
1540;15153
1537;15156
1539;15158
1536;15161
1535;15163
1543;15166
1541;15168
1524;15171
1521;15173
1531;15176
1540;15178
1546;15180
1547;15183
1544;15185
1538;15188
1531;15191
1527;15194
1522;15196
1524;15199
1529;15201
1531;15204
1532;15206
1528;15208
1524;15211
1520;15213
1516;15216
1517;15218
1521;15221
1522;15223
1523;15226
1520;15228
1513;15232
1508;15234
1505;15237
1507;15239
1511;15241
1513;15244
1514;15246
1509;15249
1503;15251
1498;15254
1495;15256
1497;15259
1501;15261
1502;15264
1503;15266
1499;15268
1493;15271
1489;15273
1487;15277
1489;15279
1493;15282
1494;15284
1495;15287
1491;15289
1486;15292
1482;15294
1480;15296
1484;15299
1487;15301
1489;15304
1489;15306
1486;15309
1481;15311
1477;15314
1473;15316
1474;15320
1479;15322
1482;15325
1482;15327
1479;15329
1475;15332
1472;15334
1470;15337
1474;15339
1478;15342
1480;15344
1480;15347
1476;15349
1471;15352
1466;15354
1464;15356
1466;15360
1469;15362
1470;15365
1469;15367
1465;15370
1460;15372
1457;15375
1455;15377
1459;15380
1462;15382
1463;15384
1463;15387
1458;15389
1454;15392
1450;15394
1450;15397
1455;15399
1458;15403
1459;15405
1459;15408
1455;15410
1451;15413
1448;15415
1447;15417
1452;15420
1455;15422
1457;15425
1457;15427
1453;15430
1448;15432
1445;15435
1444;15437
1448;15440
1451;15442
1455;15444
1455;15448
1450;15450
1446;15453
1440;15455
1439;15458
1445;15460
1449;15463
1451;15465
1450;15468
1443;15470
1438;15472
1434;15475
1434;15477
1438;15480
1440;15482
1440;15485
1438;15488
1431;15491
1427;15493
1422;15496
1422;15498
1426;15500
1427;15503
1428;15505
1426;15508
1420;15510
1414;15513
1410;15515
1409;15518
1414;15520
1416;15523
1418;15525
1416;15528
1411;15531
1408;15533
1403;15536
1403;15538
1407;15541
1407;15543
1407;15546
1403;15548
1396;15551
1388;15553
1382;15556
1385;15558
1396;15560
1404;15563
1407;15565
1405;15568
1398;15570
1393;15574
1388;15576
1389;15579
1392;15581
1394;15584
1394;15586
1391;15588
1385;15591
1382;15593
1379;15596
1381;15598
1385;15601
1387;15603
1389;15606
1388;15608
1382;15611
1379;15613
1375;15617
1376;15619
1379;15621
1381;15624
1382;15626
1379;15629
1374;15631
1370;15634
1368;15636
1370;15639
1374;15641
1376;15644
1377;15646
1372;15648
1366;15651
1362;15653
1359;15656
1361;15659
1364;15662
1365;15664
1364;15667
1359;15669
1352;15672
1347;15674
1343;15676
1343;15679
1345;15681
1344;15684
1343;15686
1338;15689
1332;15691
1327;15694
1324;15696
1324;15699
1326;15702
1326;15705
1326;15707
1322;15709
1316;15712
1312;15714
1310;15717
1312;15719
1315;15722
1316;15724
1316;15727
1313;15729
1309;15732
1306;15734
1305;15736
1307;15739
1311;15741
1313;15745
1313;15747
1309;15750
1305;15752
1302;15755
1300;15757
1304;15760
1307;15762
1308;15764
1308;15767
1304;15769
1300;15772
1298;15774
1298;15777
1303;15779
1307;15782
1311;15784
1312;15788
1309;15790
1307;15793
1306;15795
1306;15797
1312;15800
1317;15802
1320;15805
1322;15807
1319;15810
1316;15812
1309;15815
1299;15817
1300;15820
1307;15822
1317;15824
1323;15827
1323;15830
1322;15833
1322;15835
1323;15838
1328;15840
1333;15843
1336;15845
1337;15848
