mV;time
0;0
1488;2
1491;4
1495;7
1497;9
1498;11
1498;13
1496;16
1492;18
1490;20
1488;23
1490;25
1495;27
1499;30
1502;32
1500;34
1495;36
1491;39
1488;41
1488;44
1491;47
1494;49
1496;51
1496;54
1494;56
1490;58
1487;61
1486;63
1486;65
1490;67
1492;70
1493;72
1492;74
1491;77
1491;79
1490;81
1489;84
1493;87
1494;89
1494;91
1492;94
1491;96
1490;98
1488;101
1485;103
1486;105
1489;108
1490;110
1492;112
1490;115
1487;117
1484;120
1482;122
1484;124
1488;128
1490;130
1492;132
1492;135
1489;137
1486;139
1484;142
1484;144
1488;146
1490;149
1492;151
1493;153
1491;156
1488;158
1486;161
1484;163
1488;165
1492;168
1499;171
1505;173
1505;176
1498;178
1491;180
1486;183
1486;185
1489;187
1492;190
1495;192
1493;194
1488;197
1485;199
1482;202
1483;204
1490;206
1496;209
1501;211
1504;214
1499;217
1489;219
1487;221
1486;224
1490;226
1497;228
1497;231
1497;233
1497;236
1497;238
1493;240
1490;243
1491;245
1494;247
1495;250
1496;252
1494;254
1489;258
1485;260
1483;262
1487;265
1492;267
1492;269
1492;272
1496;274
1500;277
1496;279
1492;281
1493;284
1497;286
1500;288
1502;291
1502;293
1500;295
1498;299
1493;301
1493;303
1498;306
1503;308
1507;310
1506;313
1502;315
1509;318
1512;320
1504;322
1506;325
1512;327
1507;329
1506;332
1510;334
1505;336
1496;339
1504;342
1524;344
1538;347
1536;349
1537;351
1543;354
1539;356
1526;359
1511;361
1503;363
1523;366
1545;368
1534;370
1514;373
1515;375
1534;377
1549;380
1526;382
1502;385
1504;388
1536;390
1554;393
1561;395
1551;397
1543;400
1537;402
1530;404
1517;407
1525;409
1536;411
1533;414
1473;416
1447;418
1475;421
1503;423
1524;425
1527;429
1537;431
1550;434
1561;436
1564;438
1566;441
1540;443
1517;445
1525;448
1529;450
1543;452
1558;455
1567;457
1547;459
1549;462
1522;464
1503;466
1543;470
1568;472
1553;475
1543;477
1541;479
1522;482
1521;484
1533;486
1533;489
1522;491
1483;493
1478;496
1517;498
1536;500
1535;503
1536;505
1521;508
1509;510
1506;513
1492;516
1505;518
1512;520
1536;523
1543;525
1548;527
1554;530
1559;532
1550;534
1545;537
1510;539
1487;541
1499;544
1520;546
1528;549
1536;551
1536;553
1522;557
1514;559
1517;561
1507;564
1506;566
1522;568
1533;571
1521;573
1513;575
1529;578
1537;580
1511;582
1513;585
1539;587
1524;590
1537;592
1542;594
1524;598
1534;600
1563;602
1571;605
1560;607
1532;609
1534;612
1521;614
1534;616
1561;619
1558;621
1543;624
1545;626
1535;628
1540;631
1505;633
1542;635
1579;638
1567;641
1531;643
1529;646
1529;648
1526;650
1511;653
1518;655
1517;657
1530;660
1527;662
1518;665
1520;667
1511;669
1508;672
1555;674
1556;676
1524;679
1509;681
1485;684
1488;687
1496;689
1498;691
1498;694
1516;696
1502;699
1490;701
1489;703
1483;706
1478;708
1492;710
1498;713
1499;715
1514;717
1513;720
1507;722
1496;724
1478;728
1481;730
1485;732
1473;735
1485;737
1508;740
1519;742
1505;744
1496;747
1481;749
1479;751
1497;754
1493;756
1500;758
1495;761
1478;763
1465;765
1486;769
1511;771
1503;773
1475;776
1487;778
1504;781
1491;783
1488;785
1487;788
1473;790
1466;792
1469;795
1460;797
1460;799
1481;802
1518;804
1513;806
1497;809
1501;812
1502;815
1483;817
1451;819
1480;822
1495;824
1502;826
1502;829
1499;831
1501;833
1483;836
1470;838
1466;840
1451;843
1445;845
1497;847
1516;850
1504;852
1478;856
1464;858
1471;860
1461;863
1464;865
1472;867
1480;870
1486;872
1507;874
1498;877
1477;879
1461;881
1472;884
1486;886
1485;888
1480;891
1477;893
1468;897
1449;899
1461;901
1483;904
1483;906
1487;908
1481;911
1483;913
1485;915
1477;918
1496;920
1503;922
1483;925
1478;927
1486;929
1473;932
1449;934
1455;937
1464;940
1462;942
1499;945
1503;947
1466;949
1441;952
1439;954
1434;956
1437;959
1437;961
1440;963
1464;966
1478;968
1463;971
1459;973
1452;975
1448;978
1433;980
1441;983
1468;986
1467;988
1453;990
1461;993
1484;995
1494;997
1466;1000
1449;1002
1453;1005
1456;1007
1462;1009
1500;1012
1512;1014
1484;1017
1463;1019
1443;1021
1424;1025
1420;1027
1444;1030
1466;1032
1475;1034
1481;1037
1479;1039
1463;1042
1449;1044
1436;1046
1440;1049
1457;1051
1458;1054
1451;1056
1440;1058
1418;1061
1442;1063
1476;1067
1488;1069
1483;1071
1469;1074
1444;1076
1432;1079
1421;1081
1446;1084
1479;1086
1480;1088
1484;1091
1475;1093
1456;1096
1446;1098
1437;1100
1430;1103
1430;1105
1442;1108
1460;1111
1468;1113
1472;1116
1475;1118
1476;1121
1493;1123
1493;1125
1482;1128
1468;1130
1455;1133
1454;1135
1463;1137
1450;1140
1472;1142
1497;1145
1488;1147
1473;1149
1474;1153
1471;1155
1463;1158
1466;1160
1467;1162
1460;1165
1476;1167
1502;1170
1476;1172
1459;1175
1471;1177
1474;1179
1470;1182
1462;1184
1467;1187
1485;1189
1481;1191
1506;1195
1509;1197
1484;1200
1470;1202
1468;1204
1472;1207
1474;1209
1465;1212
1505;1214
1523;1216
1496;1219
1478;1221
1468;1224
1453;1226
1460;1228
1472;1231
1468;1233
1470;1236
1495;1239
1506;1241
1494;1244
1480;1246
1498;1249
1512;1251
1509;1254
1495;1256
1498;1258
1506;1261
1492;1263
1518;1266
1540;1268
1517;1270
1502;1273
1478;1275
1479;1278
1498;1281
1481;1283
1461;1286
1502;1288
1527;1291
1505;1293
1491;1295
1486;1298
1471;1300
1457;1303
1450;1305
1463;1307
1512;1310
1532;1312
1526;1315
1527;1317
1519;1319
1482;1323
1476;1325
1490;1328
1490;1330
1487;1332
1519;1335
1527;1337
1513;1340
1513;1342
1480;1344
1475;1347
1478;1349
1481;1352
1472;1354
1473;1356
1474;1359
1482;1361
1494;1364
1513;1367
1523;1370
1516;1372
1499;1374
1476;1377
1466;1379
1460;1382
1476;1384
1494;1386
1532;1389
1534;1391
1514;1394
1503;1396
1508;1398
1513;1401
1494;1403
1500;1406
1498;1409
1487;1411
1478;1414
1499;1416
1511;1419
1516;1421
1505;1423
1486;1426
1475;1428
1476;1431
1475;1433
1463;1435
1441;1438
1467;1440
1503;1443
1504;1445
1493;1447
1491;1451
1491;1453
1492;1456
1482;1458
1478;1461
1502;1463
1494;1465
1477;1468
1468;1470
1480;1473
1492;1475
1495;1477
1466;1480
1479;1482
1504;1485
1501;1487
1487;1489
1480;1492
1477;1495
1493;1498
1496;1500
1489;1502
1478;1505
1463;1507
1460;1510
1465;1512
1488;1514
1501;1517
1505;1519
1517;1522
1500;1524
1485;1526
1495;1529
1505;1531
1505;1534
1484;1537
1465;1539
1476;1542
1477;1544
1464;1547
1456;1549
1469;1552
1489;1554
1481;1556
1479;1559
1488;1561
1488;1564
1477;1566
1482;1568
1495;1571
1485;1573
1465;1576
1456;1579
1440;1581
1457;1584
1491;1586
1496;1589
1498;1591
1500;1593
1485;1596
1490;1598
1489;1601
1462;1603
1453;1605
1456;1608
1434;1610
1434;1613
1461;1615
1473;1617
1470;1620
1483;1623
1503;1626
1505;1628
1477;1630
1466;1633
1493;1635
1504;1638
1500;1640
1464;1642
1454;1645
1467;1647
1485;1650
1490;1652
1503;1655
1503;1657
1481;1659
1473;1662
1456;1665
1460;1668
1486;1670
1492;1672
1475;1675
1465;1677
1481;1680
1505;1682
1495;1684
1484;1687
1464;1689
1472;1692
1501;1694
1494;1696
1473;1699
1478;1701
1477;1704
1475;1707
1466;1709
1473;1712
1483;1714
1482;1717
1470;1719
1458;1721
1450;1724
1439;1726
1430;1729
1455;1731
1492;1733
1504;1736
1507;1738
1495;1741
1469;1743
1452;1745
1437;1748
1452;1751
1468;1754
1474;1756
1489;1759
1486;1761
1470;1763
1470;1766
1484;1768
1474;1771
1478;1773
1496;1775
1485;1778
1462;1780
1455;1783
1467;1785
1459;1787
1450;1790
1462;1793
1489;1796
1480;1798
1452;1800
1444;1803
1468;1805
1486;1808
1466;1810
1462;1812
1476;1815
1477;1817
1488;1820
1493;1822
1478;1824
1464;1827
1454;1829
1454;1832
1470;1835
1487;1837
1496;1840
1491;1842
1499;1845
1491;1847
1458;1849
1454;1852
1474;1854
1474;1857
1488;1859
1514;1862
1499;1864
1496;1866
1484;1869
1467;1871
1485;1874
1484;1876
1465;1879
1470;1882
1478;1884
1479;1887
1483;1889
1472;1891
1437;1894
1456;1896
1485;1899
1481;1901
1474;1903
1480;1906
1477;1908
1478;1911
1486;1913
1506;1915
1512;1918
1496;1921
1472;1924
1463;1926
1461;1928
1460;1931
1462;1933
1455;1936
1473;1938
1468;1940
1484;1943
1511;1945
1496;1948
1484;1950
1487;1953
1477;1955
1462;1957
1449;1960
1452;1963
1470;1966
1455;1968
1479;1970
1495;1973
1501;1975
1497;1978
1481;1980
1461;1982
1445;1985
1453;1987
1481;1990
1485;1992
1477;1994
1485;1997
1500;1999
1495;2002
1466;2004
1452;2007
1467;2010
1476;2012
1475;2015
1489;2017
1503;2019
1494;2022
1495;2024
1504;2027
1488;2029
1461;2031
1472;2034
1487;2036
1483;2039
1477;2041
1482;2043
1470;2046
1454;2049
1489;2052
1534;2054
1533;2057
1497;2059
1478;2061
1450;2064
1447;2066
1451;2069
1467;2071
1478;2073
1479;2076
1482;2078
1487;2081
1480;2083
1470;2085
1462;2088
1471;2091
1485;2094
1476;2096
1465;2098
1492;2101
1496;2103
1486;2106
1476;2108
1475;2110
1486;2113
1487;2115
1493;2118
1512;2120
1466;2122
1469;2125
1503;2127
1512;2130
1504;2132
1506;2135
1495;2138
1498;2140
1498;2143
1480;2145
1468;2148
1473;2150
1482;2152
1454;2155
1445;2157
1460;2160
1472;2162
1492;2164
1511;2167
1507;2169
1488;2172
1480;2174
1471;2177
1458;2180
1462;2182
1470;2185
1479;2187
1469;2189
1488;2192
1521;2194
1523;2197
1500;2199
1489;2201
1491;2204
1492;2206
1505;2209
1503;2211
1480;2213
1462;2216
1445;2219
1440;2222
1454;2224
1446;2227
1449;2229
1501;2231
1525;2234
1498;2236
1482;2239
1482;2241
1480;2243
1476;2246
1467;2248
1466;2251
1486;2253
1502;2255
1490;2258
1478;2260
1471;2264
1469;2266
1474;2268
1473;2271
1464;2273
1471;2276
1492;2278
1488;2280
1463;2283
1481;2285
1502;2288
1506;2290
1499;2292
1495;2295
1469;2297
1428;2300
1460;2302
1495;2305
1504;2308
1504;2310
1505;2313
1500;2315
1488;2318
1455;2320
1428;2322
1457;2325
1473;2327
1475;2330
1487;2332
1491;2334
1489;2337
1499;2339
1502;2342
1489;2344
1492;2347
1483;2350
1461;2352
1477;2355
1496;2357
1502;2359
1493;2362
1486;2364
1468;2367
1461;2369
1484;2371
1499;2374
1491;2376
1501;2379
1507;2381
1496;2383
1483;2386
1484;2388
1488;2392
1489;2394
1489;2397
1474;2399
1436;2401
1439;2404
1451;2406
1474;2409
1488;2411
1496;2413
1498;2416
1497;2418
1487;2421
1475;2423
1469;2425
1485;2428
1491;2430
1469;2434
1500;2436
1523;2438
1489;2441
1467;2443
1476;2446
1493;2448
1502;2450
1499;2453
1497;2455
1483;2458
1491;2460
1504;2462
1484;2465
1464;2467
1479;2470
1501;2472
1499;2475
1492;2478
1487;2480
1481;2483
1468;2485
1459;2488
1476;2490
1493;2492
1517;2495
1502;2497
1471;2500
1477;2502
1488;2504
1476;2507
1481;2509
1495;2512
1487;2514
1479;2516
1472;2520
1479;2522
1482;2525
1495;2527
1488;2529
1487;2532
1500;2534
1506;2537
1497;2539
1489;2541
1487;2544
1492;2546
1506;2549
1508;2551
1494;2553
1487;2556
1482;2558
1468;2562
1468;2564
1477;2566
1480;2569
1498;2571
1516;2574
1507;2576
1488;2579
1473;2581
1466;2583
1467;2586
1471;2588
1483;2591
1500;2593
1509;2595
1473;2598
1476;2600
1505;2604
1501;2606
1482;2608
1470;2611
1482;2613
1501;2616
1504;2618
1496;2620
1490;2623
1496;2625
1506;2628
1496;2630
1486;2632
1488;2635
1473;2637
1473;2640
1478;2642
1479;2644
1473;2648
1486;2650
1499;2653
1511;2655
1513;2657
1502;2660
1487;2662
1476;2665
1473;2667
1495;2669
1496;2672
1482;2674
1484;2677
1473;2679
1481;2682
1512;2684
1517;2686
1501;2690
1497;2692
1496;2695
1492;2697
1478;2699
1477;2702
1484;2704
1503;2707
1507;2709
1491;2711
1462;2714
1465;2716
1476;2719
1501;2721
1518;2723
1501;2726
1493;2728
1511;2732
1515;2734
1495;2736
1456;2739
1451;2741
1457;2744
1485;2746
1512;2748
1515;2751
1508;2753
1500;2756
1496;2758
1493;2760
1489;2763
1493;2765
1494;2768
1484;2770
1487;2774
1488;2776
1480;2778
1496;2781
1532;2783
1530;2786
1520;2788
1504;2790
1478;2793
1473;2795
1476;2798
1473;2800
1467;2802
1478;2805
1507;2807
1519;2810
1513;2812
1502;2814
1490;2818
1485;2820
1485;2823
1477;2825
1473;2827
1482;2830
1489;2832
1498;2835
1504;2837
1496;2839
1479;2842
1453;2844
1474;2847
1513;2849
1527;2851
1524;2854
1488;2856
1497;2860
1527;2862
1527;2865
1502;2867
1490;2869
1483;2872
1489;2874
1488;2877
1499;2879
1518;2881
1496;2884
1465;2886
1482;2889
1499;2891
1490;2893
1495;2896
1494;2898
1480;2902
1468;2904
1472;2906
1482;2909
1480;2911
1469;2914
1481;2916
1512;2918
1518;2921
1517;2923
1518;2926
1505;2928
1496;2930
1490;2933
1484;2935
1454;2938
1451;2940
1483;2942
1501;2946
1497;2948
1497;2951
1503;2953
1490;2956
1477;2958
1492;2960
1482;2963
1466;2965
1480;2968
1503;2970
1497;2972
1487;2975
1473;2977
1474;2980
1467;2982
1458;2984
1450;2988
1467;2990
1508;2993
1524;2995
1503;2997
1493;3000
1492;3002
1488;3005
1482;3007
1477;3009
1470;3012
1471;3014
1464;3017
1471;3019
1495;3021
1504;3024
1487;3026
1486;3030
1478;3032
1486;3034
1484;3037
1488;3039
1503;3042
1487;3044
1480;3047
1470;3049
1491;3051
1508;3054
1506;3056
1495;3059
1481;3061
1477;3063
1485;3066
1491;3068
1502;3072
1509;3074
1501;3076
1492;3079
1480;3081
1472;3084
1480;3086
1492;3088
1498;3091
1497;3093
1474;3096
1452;3098
1468;3100
1478;3103
1465;3105
1485;3108
1516;3110
1521;3113
1504;3116
1515;3118
1521;3121
1508;3123
1492;3126
1482;3128
1480;3130
1484;3133
1486;3135
1491;3138
1494;3140
1495;3142
1506;3145
1508;3147
1501;3150
1504;3152
1486;3154
1488;3158
1479;3160
1469;3163
1486;3165
1498;3167
1494;3170
1491;3172
1487;3175
1468;3177
1469;3180
1491;3182
1493;3184
1470;3187
1467;3189
1479;3192
1486;3194
1499;3196
1510;3200
1499;3202
1485;3205
1490;3207
1488;3209
1484;3212
1494;3214
1497;3217
1487;3219
1482;3221
1490;3224
1493;3226
1485;3229
1468;3231
1475;3233
1496;3236
1504;3238
1500;3241
1489;3244
1478;3246
1476;3249
1483;3251
1478;3254
1495;3256
1507;3258
1490;3261
1480;3263
1479;3266
1490;3268
1494;3270
1484;3273
1471;3275
1467;3278
1473;3280
1479;3282
1483;3286
1498;3288
1517;3291
1519;3293
1508;3296
1501;3298
1496;3300
1477;3303
1468;3305
1485;3308
1489;3310
1482;3312
1500;3315
1514;3317
1501;3320
1489;3322
1489;3324
1490;3328
1482;3330
1481;3333
1483;3335
1475;3337
1453;3340
1461;3342
1480;3345
1494;3347
1498;3349
1485;3352
1480;3354
1483;3357
1483;3359
1480;3361
1481;3364
1467;3366
1473;3369
1491;3372
1497;3374
1494;3377
1492;3379
1486;3382
1475;3384
1475;3387
1476;3389
1476;3391
1497;3394
1512;3396
1495;3399
1483;3401
1478;3403
1478;3406
1479;3408
1475;3411
1468;3414
1464;3416
1447;3419
1470;3421
1490;3424
1486;3426
1474;3428
1480;3431
1476;3433
1480;3436
1483;3438
1463;3440
1475;3443
1486;3445
1479;3448
1493;3450
1504;3452
1496;3456
1487;3458
1479;3461
1470;3463
1460;3465
1463;3468
1487;3470
1506;3473
1499;3475
1488;3478
1475;3480
1471;3482
1474;3485
1472;3487
1477;3490
1488;3492
1493;3494
1488;3497
1483;3500
1480;3503
1472;3505
1478;3507
1480;3510
1472;3512
1476;3515
1494;3517
1495;3519
1484;3522
1476;3524
1472;3527
1456;3529
1457;3531
1473;3534
1487;3536
1495;3539
1482;3542
1449;3544
1435;3547
1459;3549
1478;3552
1479;3554
1483;3556
1477;3559
1478;3561
1483;3564
1463;3566
1466;3569
1487;3571
1487;3573
1480;3576
1480;3578
1487;3581
1490;3584
1471;3586
1475;3589
1481;3591
1483;3594
1481;3596
1466;3598
1468;3601
1472;3603
1459;3606
1452;3608
1457;3610
1461;3613
1465;3615
1471;3618
1474;3620
1465;3622
1468;3625
1470;3628
1476;3631
1479;3633
1473;3635
1465;3638
1458;3640
1448;3643
1448;3645
1436;3648
1447;3650
1487;3652
1514;3655
1507;3657
1498;3660
1473;3662
1475;3664
1490;3667
1490;3670
1480;3673
1458;3675
1463;3677
1490;3680
1497;3682
1482;3685
1474;3687
1471;3689
1467;3692
1461;3694
1464;3697
1478;3699
1484;3701
1479;3704
1466;3706
1467;3709
1478;3712
1488;3714
1491;3717
1482;3719
1470;3722
1469;3724
1471;3726
1480;3729
1486;3731
1486;3734
1477;3736
1490;3739
1506;3741
1514;3743
1508;3746
1504;3748
1487;3751
1484;3753
1473;3756
1463;3759
1460;3761
1460;3764
1463;3766
1473;3768
1487;3771
1507;3773
1507;3776
1497;3778
1491;3780
1480;3783
1470;3785
1456;3788
1455;3790
1456;3792
1466;3795
1473;3798
1461;3801
1462;3803
1482;3805
1496;3808
1492;3810
1501;3813
1516;3815
1515;3818
1502;3820
1497;3822
1476;3825
1471;3827
1481;3830
1482;3832
1480;3834
1470;3837
1466;3840
1484;3843
1494;3845
1487;3847
1482;3850
1480;3852
1483;3855
1491;3857
1493;3859
1490;3862
1477;3864
1473;3867
1488;3869
1493;3871
1484;3874
1487;3876
1501;3879
1511;3881
1503;3884
1482;3887
1470;3889
1482;3892
1493;3894
1487;3896
1463;3899
1463;3901
1486;3904
1497;3906
1490;3909
1492;3911
1492;3913
1495;3916
1494;3918
1491;3921
1492;3923
1493;3926
1489;3929
1485;3931
1479;3934
1482;3936
1485;3938
1478;3941
1451;3943
1454;3946
1484;3948
1506;3950
1503;3953
1499;3955
1488;3958
1468;3960
1473;3962
1482;3965
1482;3968
1488;3971
1489;3973
1486;3975
1492;3978
1489;3980
1496;3983
1499;3985
1499;3988
1488;3990
1486;3992
1487;3995
1490;3997
1487;4000
1479;4002
1479;4004
1487;4007
1491;4009
1486;4013
1476;4015
1486;4017
1495;4020
1494;4022
1493;4025
1492;4027
1489;4029
1486;4032
1483;4034
1484;4037
1485;4039
1487;4041
1489;4044
1500;4046
1502;4049
1492;4051
1494;4054
1505;4057
1502;4059
1483;4062
1463;4064
1474;4066
1491;4069
1504;4071
1512;4074
1513;4076
1510;4078
1509;4081
1503;4083
1490;4086
1492;4088
1490;4090
1490;4093
1470;4096
1468;4099
1486;4101
1495;4104
1501;4106
1507;4108
1511;4111
1508;4113
1490;4116
1448;4118
1484;4120
1535;4123
1535;4125
1516;4128
1515;4130
1510;4132
1499;4135
1486;4137
1463;4141
1480;4143
1507;4145
1508;4148
1499;4150
1500;4153
1499;4155
1494;4157
1494;4160
1501;4162
1503;4165
1496;4167
1492;4169
1494;4172
1500;4174
1499;4177
1491;4179
1488;4183
1494;4185
1505;4187
1506;4190
1506;4192
1508;4195
1511;4197
1511;4199
1503;4202
1510;4204
1499;4207
1499;4209
1503;4211
1501;4214
1497;4216
1493;4219
1486;4221
1481;4224
1486;4227
1493;4229
1478;4232
1482;4234
1506;4236
1516;4239
1513;4241
1512;4244
1501;4246
1496;4248
1494;4251
1485;4253
1492;4256
1494;4258
1484;4260
1477;4263
1478;4265
1478;4269
1492;4271
1500;4274
1495;4276
1490;4278
1484;4281
1484;4283
1488;4286
1495;4288
1497;4290
1490;4293
1470;4295
1467;4298
1483;4300
1492;4302
1488;4305
1477;4307
1476;4311
1487;4313
1499;4315
1499;4318
1511;4320
1529;4323
1510;4325
1501;4327
1507;4330
1508;4332
1499;4335
1500;4337
1497;4339
1488;4342
1482;4344
1471;4347
1465;4349
1488;4353
1526;4355
1526;4357
1504;4360
1495;4362
1498;4365
1497;4367
1487;4369
1476;4372
1452;4374
1469;4377
1503;4379
1512;4381
1504;4384
1498;4386
1494;4389
1488;4391
1477;4393
1482;4397
1483;4399
1471;4402
1477;4404
1483;4406
1480;4409
1482;4411
1477;4414
1489;4416
1496;4418
1503;4421
1489;4423
1491;4426
1517;4428
1521;4431
1504;4433
1494;4435
1483;4439
1471;4441
1460;4444
1453;4446
1453;4448
1463;4451
1460;4453
1486;4456
1515;4458
1512;4460
1496;4463
1479;4465
1475;4468
1495;4470
1509;4472
1493;4475
1477;4477
1477;4481
1475;4483
1492;4485
1460;4488
1457;4490
1497;4493
1526;4495
1514;4497
1498;4500
1492;4502
1483;4505
1480;4507
1476;4510
1470;4512
1462;4514
1460;4517
1462;4519
1464;4523
1455;4525
1456;4527
1471;4530
1494;4532
1493;4535
1486;4537
1493;4539
1507;4542
1491;4544
1486;4547
1488;4549
1495;4551
1492;4554
1480;4556
1477;4559
1476;4561
1483;4563
1481;4567
1482;4569
1491;4572
1492;4574
1483;4576
1466;4579
1460;4581
1469;4584
1478;4586
1484;4588
1503;4591
1503;4593
1497;4596
1495;4598
1488;4601
1476;4603
1483;4605
1501;4609
1500;4611
1493;4614
1487;4616
1469;4618
1462;4621
1470;4623
1478;4626
1488;4628
1503;4630
1504;4633
1487;4635
1483;4638
1478;4640
1473;4642
1491;4645
1504;4647
1498;4651
1495;4653
1480;4655
1478;4658
1491;4660
1498;4663
1493;4665
1490;4668
1500;4670
1499;4672
1500;4675
1501;4677
1499;4680
1478;4682
1472;4684
1490;4687
1498;4689
1489;4692
1480;4695
1480;4697
1488;4700
1496;4702
1486;4705
1476;4707
1496;4709
1527;4712
1541;4714
1530;4717
1502;4719
1474;4721
1478;4724
1480;4726
1482;4729
1489;4731
1489;4733
1486;4737
1487;4739
1485;4742
1492;4744
1502;4747
1512;4749
1498;4751
1499;4754
1512;4756
1499;4759
1479;4761
1480;4763
1477;4766
1486;4768
1508;4771
1517;4773
1507;4775
1496;4779
1490;4781
1488;4784
1482;4786
1483;4788
1494;4791
1507;4793
1512;4796
1513;4798
1494;4800
1487;4803
1498;4805
1496;4808
1493;4810
1482;4813
1449;4815
1461;4817
1486;4820
1500;4823
1497;4826
1502;4828
1510;4830
1507;4833
1502;4835
1498;4838
1485;4840
1494;4842
1508;4845
1500;4847
1492;4850
1482;4852
1474;4854
1469;4857
1472;4859
1470;4862
1482;4865
1496;4867
1509;4870
1515;4872
1513;4875
1511;4877
1503;4879
1507;4882
1498;4884
1488;4887
1502;4889
1512;4891
1483;4894
1475;4896
1496;4899
1515;4901
1518;4904
1508;4907
1496;4909
1494;4912
1496;4914
1497;4917
1495;4919
1488;4921
1483;4924
1477;4926
1466;4929
1482;4931
1502;4933
1509;4936
1491;4938
1484;4941
1497;4943
1504;4945
1505;4948
1505;4951
1499;4954
1497;4956
1508;4958
1506;4961
1494;4963
1494;4966
1493;4968
1495;4970
1487;4973
1483;4975
1489;4978
1488;4980
1495;4982
1493;4985
1499;4987
1513;4990
1515;4993
1509;4996
1501;4998
1485;5000
1478;5003
1482;5005
1480;5008
1464;5010
1463;5012
1476;5015
1480;5017
1483;5020
1481;5022
1472;5024
1485;5027
1492;5029
1500;5032
1532;5035
1544;5037
1500;5040
1485;5042
1480;5045
1492;5047
1501;5049
1504;5052
1488;5054
1496;5057
1515;5059
1513;5062
1506;5064
1501;5066
1496;5069
1501;5071
1495;5074
1494;5076
1497;5079
1491;5082
1480;5084
1475;5087
1474;5089
1472;5091
1471;5094
1469;5096
1474;5099
1506;5101
1520;5103
1501;5106
1491;5108
1493;5111
1448;5113
1461;5115
1502;5118
1509;5121
1487;5124
1480;5126
1471;5129
1484;5131
1505;5133
1515;5136
1497;5138
1490;5141
1493;5143
1484;5145
1480;5148
1489;5150
1497;5153
1489;5155
1486;5157
1485;5160
1480;5163
1480;5166
1492;5168
1485;5170
1478;5173
1468;5175
1478;5178
1490;5180
1494;5182
1488;5185
1485;5187
1486;5190
1488;5192
1479;5194
1484;5197
1493;5199
1489;5202
1484;5204
1488;5207
1484;5210
1486;5212
1506;5215
1508;5217
1489;5220
1480;5222
1479;5224
1465;5227
1462;5229
1484;5232
1497;5234
1511;5236
1525;5239
1514;5241
1492;5244
1481;5246
1476;5249
1457;5252
1461;5254
1480;5257
1493;5259
1490;5261
1494;5264
1487;5266
1482;5269
1489;5271
1498;5273
1502;5276
1484;5278
1475;5281
1494;5283
1505;5285
1487;5288
1465;5291
1471;5294
1482;5296
1480;5298
1472;5301
1478;5303
1486;5306
1498;5308
1517;5311
1467;5313
1445;5315
1477;5318
1507;5320
1500;5323
1484;5325
1475;5327
1471;5330
1476;5332
1469;5336
1478;5338
1492;5340
1505;5343
1509;5345
1498;5348
1484;5350
1492;5352
1496;5355
1503;5357
1504;5360
1484;5362
1469;5364
1475;5367
1480;5369
1490;5372
1483;5374
1468;5377
1476;5380
1496;5382
1502;5385
1494;5387
1468;5390
1462;5392
1501;5394
1517;5397
1510;5399
1501;5402
1503;5404
1500;5406
1489;5409
1475;5411
1488;5414
1507;5416
1514;5419
1507;5422
1497;5424
1481;5427
1467;5429
1468;5431
1479;5434
1485;5436
1491;5439
1492;5441
1492;5443
1493;5446
1481;5448
1495;5451
1515;5453
1517;5455
1485;5458
1479;5460
1488;5464
1489;5466
1482;5468
1495;5471
1505;5473
1498;5476
1491;5478
1468;5481
1466;5483
1479;5485
1482;5488
1479;5490
1487;5493
1502;5495
1505;5497
1493;5500
1484;5502
1479;5506
1473;5508
1471;5510
1497;5513
1512;5515
1508;5518
1498;5520
1484;5522
1478;5525
1469;5527
1476;5530
1481;5532
1485;5534
1499;5537
1507;5539
1493;5542
1483;5544
1477;5547
1473;5550
1468;5552
1478;5555
1497;5557
1500;5560
1491;5562
1483;5564
1463;5567
1460;5569
1479;5572
1489;5574
1492;5576
1495;5579
1492;5581
1487;5584
1477;5586
1471;5588
1472;5592
1482;5594
1492;5597
1496;5599
1482;5601
1470;5604
1465;5606
1466;5609
1474;5611
1488;5613
1501;5616
1492;5618
1477;5621
1454;5623
1454;5626
1470;5628
1495;5630
1513;5634
1514;5636
1508;5639
1491;5641
1481;5643
1487;5646
1496;5648
1490;5651
1472;5653
1491;5655
1515;5658
1526;5660
1521;5663
1503;5665
1485;5667
1482;5670
1482;5672
1481;5676
1483;5678
1483;5680
1480;5683
1477;5685
1475;5688
1475;5690
1479;5692
1481;5695
1481;5697
1479;5700
1473;5702
1473;5704
1477;5707
1479;5709
1482;5712
1488;5714
1491;5718
1495;5720
1499;5722
1502;5725
1496;5727
1488;5730
1496;5732
1510;5734
1518;5737
1517;5739
1509;5742
1499;5744
1492;5746
1486;5749
1490;5751
1499;5754
1504;5756
1504;5758
1498;5762
1494;5764
1493;5767
1492;5769
1494;5771
1497;5774
1498;5776
1497;5779
1493;5781
1488;5784
1488;5786
1490;5788
1495;5791
1502;5793
1506;5796
1506;5798
1499;5800
1491;5804
1484;5806
1478;5809
1481;5811
1492;5813
1504;5816
1510;5818
1513;5821
1504;5823
1493;5825
1486;5828
1486;5830
1490;5833
1485;5835
1489;5837
1499;5840
1503;5842
1503;5846
1495;5848
1492;5850
1493;5853
1494;5855
1495;5858
1494;5860
1491;5862
1489;5865
1486;5867
1484;5870
1486;5872
1491;5875
1496;5877
1496;5879
1492;5882
1489;5884
1487;5888
1487;5890
1492;5892
1497;5895
1501;5897
1504;5900
1501;5902
1496;5904
1491;5907
1489;5909
1492;5912
1494;5914
1503;5916
1514;5919
1512;5921
1505;5924
1493;5926
1491;5928
1495;5932
1498;5934
1499;5937
1498;5939
1494;5942
1490;5944
1486;5946
1484;5949
1486;5951
1489;5954
1491;5956
1492;5958
1490;5961
1487;5963
1485;5966
1483;5968
1485;5970
1488;5974
1490;5976
1491;5979
1489;5981
1485;5983
1482;5986
1480;5988
1482;5991
1486;5993
1488;5995
1489;5998
1488;6000
1485;6003
1483;6005
1481;6007
1482;6010
1488;6012
1494;6016
1496;6018
1493;6021
1491;6023
1489;6025
1487;6028
1487;6030
1489;6033
1491;6035
1493;6037
1494;6040
1489;6042
1485;6045
1484;6047
1486;6049
1491;6052
1493;6054
1493;6057
1493;6060
1490;6062
1488;6065
1486;6067
1486;6070
1489;6072
1494;6074
1497;6077
1498;6079
1495;6082
1492;6084
1490;6086
1489;6089
1492;6091
1494;6094
1498;6096
1500;6099
1502;6102
1499;6104
1494;6107
1490;6109
1490;6112
1491;6114
1490;6116
1488;6119
1486;6121
1488;6124
1492;6126
1492;6128
1492;6131
1492;6133
1490;6136
1489;6138
1487;6140
1481;6144
1477;6146
1476;6149
1479;6151
1482;6153
1485;6156
1487;6158
1486;6161
1482;6163
1479;6166
1477;6168
1478;6170
1481;6173
1484;6175
1485;6178
1484;6180
1480;6182
1478;6185
1476;6188
1476;6191
1480;6193
1482;6195
1483;6198
