mV;time
0;0
1494;2
1502;4
1509;7
1514;9
1519;11
1518;13
1511;16
1503;18
1494;20
1493;23
1502;25
1511;27
1517;30
1518;32
1510;34
1498;36
1493;39
1492;41
1502;44
1515;47
1520;49
1526;51
1523;54
1516;56
1507;58
1500;61
1502;63
1511;65
1519;67
1523;70
1524;72
1519;74
1509;77
1501;79
1496;81
1501;84
1508;87
1511;89
1515;91
1515;94
1508;96
1502;98
1496;101
1496;103
1507;105
1515;108
1520;110
1522;112
1514;115
1503;117
1491;120
1489;122
1496;124
1508;128
1516;130
1520;132
1516;135
1508;137
1499;139
1491;142
1498;144
1510;146
1515;149
1520;151
1518;153
1506;156
1493;158
1485;161
1486;163
1501;165
1511;168
1517;171
1517;173
1510;176
1501;178
1494;180
1494;183
1504;185
1510;187
1517;190
1517;192
1505;194
1494;197
1491;199
1490;202
1500;204
1511;206
1517;209
1520;211
1513;214
1501;217
1494;219
1490;221
1494;224
1506;226
1511;228
1516;231
1515;233
1509;236
1501;238
1495;240
1495;243
1505;245
1512;247
1516;250
1518;252
1511;254
1502;258
1496;260
1493;262
1501;265
1512;267
1520;269
1523;272
1515;274
1500;277
1494;279
1492;281
1501;284
1511;286
1518;288
1523;291
1521;293
1513;295
1507;299
1499;301
1499;303
1511;306
1520;308
1524;310
1527;313
1514;315
1498;318
1490;320
1494;322
1504;325
1514;327
1520;329
1523;332
1514;334
1504;336
1495;339
1492;342
1501;344
1513;347
1518;349
1521;351
1515;354
1505;356
1500;359
1498;361
1501;363
1513;366
1519;368
1525;370
1527;373
1522;375
1514;377
1505;380
1502;382
1511;385
1520;388
1529;390
1532;393
1525;395
1516;397
1510;400
1505;402
1510;404
1520;407
1522;409
1524;411
1524;414
1518;416
1512;418
1505;421
1508;423
1519;425
1527;429
1532;431
1530;434
1521;436
1515;438
1509;441
1506;443
1514;445
1522;448
1527;450
1529;452
1523;455
1512;457
1504;459
1499;462
1505;464
1516;466
1522;470
1524;472
1522;475
1513;477
1506;479
1496;482
1494;484
1502;486
1512;489
1522;491
1524;493
1516;496
1507;498
1502;500
1501;503
1510;505
1516;508
1520;510
1522;513
1517;516
1508;518
1498;520
1494;523
1499;525
1508;527
1508;530
1509;532
1504;534
1497;537
1488;539
1483;541
1490;544
1497;546
1503;549
1507;551
1504;553
1491;557
1481;559
1479;561
1484;564
1497;566
1504;568
1506;571
1501;573
1489;575
1473;578
1464;580
1461;583
1469;585
1475;587
1481;590
1487;592
1486;594
1476;598
1468;600
1460;602
1464;605
1472;607
1476;609
1478;612
1474;614
1463;616
1455;619
1448;621
1451;624
1461;626
1471;628
1478;631
1482;633
1472;635
1461;638
1450;641
1446;643
1459;646
1471;648
1477;650
1483;653
1474;655
1460;658
1448;660
1439;662
1441;665
1448;667
1451;669
1453;672
1447;674
1439;676
1430;679
1422;681
1425;684
1434;687
1438;689
1442;691
1441;694
1434;696
1428;699
1426;701
1430;703
1449;706
1462;708
1469;710
1466;713
1459;715
1455;717
1455;720
1458;722
1476;724
1482;728
1480;730
1474;732
1460;735
1452;737
1450;740
1449;742
1453;744
1460;747
1464;749
1467;751
1469;754
1463;756
1455;758
1445;761
1444;763
1454;765
1464;769
1471;771
1469;774
1458;776
1451;778
1456;781
1464;783
1471;785
1467;788
1462;790
1467;792
1466;795
1458;797
1449;799
1444;802
1451;804
1471;806
1488;809
1496;812
1488;815
1486;817
1487;819
1477;822
1464;824
1462;826
1462;829
1463;831
1459;833
1446;836
1433;838
1428;840
1425;843
1433;845
1441;847
1449;850
1453;852
1449;856
1442;858
1440;860
1445;863
1460;865
1491;867
1508;870
1501;872
1477;874
1457;877
1441;879
1436;881
1439;884
1446;886
1447;889
1457;891
1465;893
1462;897
1454;899
1459;901
1488;904
1527;906
1543;908
1541;911
1531;913
1515;915
1492;918
1479;920
1476;922
1488;925
1506;927
1519;930
1525;932
1513;934
1488;937
1477;940
1471;942
1474;945
1488;947
1498;949
1505;952
1503;954
1505;956
1509;959
1499;961
1497;964
1504;966
1508;968
1505;971
1503;973
1499;975
1492;978
1484;980
1478;983
1492;986
1504;988
1508;990
1514;993
1518;995
1509;997
1494;1000
1484;1002
1488;1005
1502;1007
1518;1009
1541;1012
1540;1014
1520;1017
1504;1019
1499;1021
1517;1025
1533;1027
1534;1030
1547;1032
1552;1035
1538;1037
1523;1039
1524;1042
1528;1044
1539;1047
1545;1049
1545;1051
1544;1054
1545;1056
1544;1059
1535;1061
1542;1063
1565;1067
1570;1069
1565;1072
1558;1074
1543;1076
1533;1079
1529;1081
1522;1084
1522;1086
1526;1088
1531;1091
1531;1093
1530;1096
1526;1098
1518;1100
1516;1103
1532;1105
1555;1108
1577;1111
1579;1113
1563;1116
1554;1118
1549;1121
1562;1123
1573;1126
1569;1128
1568;1130
1575;1133
1573;1135
1569;1138
1567;1140
1560;1142
1567;1145
1584;1147
1593;1150
1586;1153
1584;1155
1578;1158
1570;1160
1566;1163
1578;1165
1602;1167
1619;1170
1622;1172
1609;1175
1583;1177
1567;1179
1562;1182
1573;1184
1588;1187
1593;1189
1597;1191
1597;1195
1589;1197
1577;1200
1566;1202
1569;1205
1595;1207
1609;1209
1614;1212
1610;1214
1595;1217
1577;1219
1566;1221
1576;1224
1590;1226
1599;1229
1607;1231
1608;1233
1600;1236
1597;1239
1589;1242
1577;1244
1582;1246
1586;1249
1593;1251
1597;1254
1600;1256
1598;1258
1589;1261
1594;1263
1613;1266
1626;1268
1630;1270
1625;1273
1614;1275
1605;1278
1601;1281
1598;1283
1608;1286
1621;1288
1630;1291
1634;1293
1645;1295
1642;1298
1633;1300
1622;1303
1630;1305
1638;1308
1641;1310
1644;1312
1641;1315
1631;1317
1619;1320
1622;1323
1643;1325
1657;1328
1656;1330
1653;1333
1649;1335
1648;1337
1645;1340
1639;1342
1646;1345
1665;1347
1669;1349
1672;1352
1673;1354
1658;1357
1638;1359
1626;1361
1627;1364
1647;1367
1662;1370
1666;1372
1668;1374
1659;1377
1647;1379
1640;1382
1640;1384
1655;1386
1673;1389
1684;1391
1686;1394
1679;1396
1665;1398
1654;1401
1652;1403
1665;1406
1674;1409
1676;1411
1668;1414
1657;1416
1649;1419
1648;1421
1649;1424
1653;1426
1656;1428
1665;1431
1671;1433
1670;1436
1660;1438
1662;1440
1670;1443
1673;1445
1672;1448
1681;1451
1685;1453
1675;1456
1653;1458
1641;1461
1645;1463
1664;1465
1670;1468
1676;1470
1681;1473
1676;1475
1664;1477
1654;1480
1645;1482
1650;1485
1659;1487
1666;1489
1690;1492
1696;1495
1679;1498
1661;1500
1645;1502
1642;1505
1649;1507
1655;1510
1660;1512
1660;1514
1655;1517
1661;1519
1657;1522
1647;1524
1656;1526
1661;1529
1664;1531
1673;1534
1670;1537
1657;1540
1647;1542
1650;1544
1661;1547
1670;1549
1683;1552
1685;1554
1671;1556
1655;1559
1648;1561
1649;1564
1653;1566
1665;1568
1669;1571
1677;1573
1689;1576
1685;1579
1689;1581
1683;1584
1678;1586
1680;1589
1679;1591
1683;1593
1673;1596
1661;1598
1652;1601
1649;1603
1657;1605
1661;1608
1664;1610
1670;1613
1668;1615
1677;1617
1695;1620
1687;1623
1669;1626
1668;1628
1665;1631
1662;1633
1660;1635
1675;1638
1682;1640
1668;1643
1659;1645
1663;1647
1668;1650
1670;1652
1672;1655
1670;1657
1657;1659
1650;1662
1655;1665
1661;1668
1665;1670
1674;1672
1685;1675
1688;1677
1681;1680
1665;1682
1654;1684
1656;1687
1664;1689
1671;1692
1672;1694
1665;1696
1657;1699
1652;1701
1652;1704
1659;1707
1659;1709
1661;1712
1658;1714
1647;1717
1638;1719
1637;1721
1635;1724
1648;1726
1661;1729
1666;1731
1664;1733
1657;1736
1646;1738
1633;1741
1623;1743
1630;1745
1644;1748
1655;1751
1665;1754
1660;1756
1646;1759
1633;1761
1621;1763
1620;1766
1631;1768
1644;1771
1645;1773
1639;1775
1631;1778
1621;1780
1613;1783
1622;1785
1632;1787
1633;1790
1636;1793
1646;1796
1635;1798
1614;1800
1602;1803
1602;1805
1611;1808
1617;1810
1620;1812
1619;1815
1604;1817
1597;1820
1590;1822
1592;1824
1604;1827
1613;1829
1614;1832
1610;1835
1605;1837
1603;1840
1597;1842
1590;1845
1599;1847
1605;1849
1602;1852
1598;1854
1592;1857
1582;1859
1566;1862
1559;1864
1571;1866
1597;1869
1609;1871
1597;1874
1576;1876
1565;1879
1557;1882
1554;1884
1561;1887
1581;1889
1592;1891
1586;1894
1566;1896
1551;1899
1543;1901
1534;1903
1536;1906
1548;1908
1560;1911
1563;1913
1555;1915
1554;1918
1552;1921
1553;1924
1558;1926
1561;1928
1560;1931
1559;1933
1547;1936
1532;1938
1523;1941
1518;1943
1517;1945
1527;1948
1533;1950
1530;1953
1524;1955
1519;1957
1516;1960
1506;1963
1506;1966
1521;1968
1527;1970
1530;1973
1523;1975
1511;1978
1502;1980
1494;1982
1494;1985
1497;1987
1500;1990
1512;1992
1518;1994
1517;1997
1507;1999
1492;2002
1487;2004
1497;2007
1498;2010
1497;2012
1494;2015
1484;2017
1475;2019
1485;2022
1506;2024
1511;2027
1504;2029
1493;2032
1488;2034
1480;2036
1469;2039
1460;2041
1456;2044
1468;2046
1487;2049
1498;2052
1500;2054
1489;2057
1477;2059
1456;2061
1449;2064
1453;2066
1460;2069
1462;2071
1466;2073
1463;2076
1454;2078
1451;2081
1456;2083
1462;2085
1465;2088
1466;2091
1471;2094
1473;2096
1471;2098
1467;2101
1460;2103
1449;2106
1452;2108
1461;2110
1476;2113
1481;2115
1465;2118
1456;2120
1445;2122
1442;2125
1448;2127
1452;2130
1456;2132
1458;2136
1452;2138
1440;2140
1432;2143
1435;2145
1442;2148
1446;2150
1458;2152
1480;2155
1477;2157
1453;2160
1435;2162
1430;2164
1436;2167
1447;2169
1470;2172
1484;2174
1467;2177
1446;2180
1434;2182
1429;2185
1437;2187
1446;2189
1451;2192
1457;2194
1468;2197
1464;2199
1445;2201
1445;2204
1456;2206
1458;2209
1454;2211
1451;2213
1447;2216
1440;2219
1443;2222
1448;2224
1453;2227
1458;2229
1456;2231
1457;2234
1457;2236
1453;2239
1445;2241
1434;2243
1443;2246
1462;2248
1466;2251
1458;2253
1448;2255
1450;2258
1453;2260
1446;2264
1444;2266
1452;2268
1454;2271
1456;2273
1454;2276
1447;2278
1450;2280
1450;2283
1461;2285
1465;2288
1459;2290
1453;2292
1446;2295
1437;2297
1431;2300
1430;2302
1441;2305
1459;2308
1456;2310
1453;2313
1458;2315
1455;2317
1448;2320
1438;2322
1435;2325
1440;2327
1446;2330
1451;2332
1450;2334
1441;2337
1437;2339
1444;2342
1447;2344
1446;2347
1446;2350
1454;2352
1464;2355
1457;2357
1435;2359
1420;2362
1413;2364
1425;2367
1454;2369
1462;2371
1455;2374
1442;2376
1437;2379
1431;2381
1420;2383
1421;2386
1426;2388
1430;2392
1432;2394
1432;2396
1430;2399
1426;2401
1421;2404
1429;2406
1441;2409
1452;2411
1454;2413
1441;2416
1433;2418
1440;2421
1442;2423
1433;2425
1431;2428
1431;2430
1431;2434
1425;2436
1413;2438
1405;2441
1400;2443
1403;2446
1415;2448
1423;2450
1433;2453
1446;2455
1442;2458
1425;2460
1419;2462
1419;2465
1426;2467
1429;2470
1443;2472
1447;2475
1428;2478
1409;2480
1397;2483
1395;2485
1401;2487
1417;2490
1431;2492
1429;2495
1416;2497
1411;2500
1411;2502
1412;2504
1418;2507
1429;2509
1446;2512
1448;2514
1431;2516
1413;2520
1403;2522
1399;2525
1410;2527
1419;2529
1422;2532
1425;2534
1423;2537
1409;2539
1397;2541
1392;2544
1401;2546
1416;2549
1423;2551
1425;2553
1424;2556
1418;2558
1412;2562
1411;2564
1417;2566
1422;2569
1420;2571
1421;2574
1421;2576
1419;2578
1413;2581
1399;2583
1396;2586
1402;2588
1405;2591
1411;2593
1422;2595
1425;2598
1417;2600
1402;2604
1402;2606
1410;2608
1408;2611
1412;2613
1413;2616
1402;2618
1391;2620
1387;2623
1394;2625
1411;2628
1422;2630
1422;2632
1416;2635
1405;2637
1395;2640
1388;2642
1391;2644
1411;2648
1422;2650
1422;2653
1423;2655
1422;2657
1423;2660
1415;2662
1404;2665
1405;2667
1406;2669
1406;2672
1409;2674
1408;2677
1410;2679
1413;2682
1413;2684
1416;2686
1418;2690
1412;2692
1408;2695
1401;2697
1392;2699
1383;2702
1376;2704
1384;2707
1400;2709
1420;2711
1438;2714
1430;2716
1411;2719
1408;2721
1402;2723
1398;2726
1403;2728
1406;2732
1405;2734
1410;2736
1413;2739
1405;2741
1398;2744
1399;2746
1409;2748
1412;2751
1410;2753
1406;2756
1403;2758
1406;2760
1410;2763
1410;2765
1417;2768
1420;2770
1417;2772
1408;2776
1397;2778
1389;2781
1383;2783
1385;2786
1403;2788
1418;2790
1427;2793
1422;2795
1407;2798
1396;2800
1390;2802
1391;2805
1400;2807
1405;2810
1410;2812
1412;2814
1409;2818
1404;2820
1402;2823
1405;2825
1410;2827
1417;2830
1434;2832
1442;2835
1431;2837
1415;2839
1402;2842
1394;2844
1399;2847
1412;2849
1414;2851
1413;2854
1410;2856
1402;2860
1403;2862
1411;2864
1414;2867
1415;2869
1416;2872
1419;2874
1417;2877
1410;2879
1415;2881
1412;2884
1410;2886
1411;2889
1414;2891
1421;2893
1423;2896
1416;2898
1409;2902
1404;2904
1411;2906
1419;2909
1418;2911
1426;2914
1431;2916
1422;2918
1410;2921
1401;2923
1408;2926
1433;2928
1439;2930
1432;2933
1427;2935
1426;2938
1431;2940
1427;2942
1418;2946
1421;2948
1420;2951
1420;2953
1419;2956
1413;2958
1408;2960
1402;2963
1398;2965
1407;2968
1413;2970
1419;2972
1434;2975
1447;2977
1447;2980
1437;2982
1421;2984
1422;2988
1428;2990
1431;2993
1438;2995
1435;2997
1420;3000
1409;3002
1404;3005
1409;3007
1420;3009
1427;3012
1430;3014
1429;3017
1419;3019
1412;3021
1411;3024
1421;3026
1438;3030
1449;3032
1447;3035
1438;3037
1428;3039
1437;3042
1447;3044
1445;3047
1443;3049
1449;3051
1457;3054
1450;3056
1432;3059
1416;3061
1409;3063
1415;3066
1432;3068
1440;3072
1440;3074
1439;3076
1431;3079
1426;3081
1425;3084
1431;3086
1441;3088
1443;3091
1451;3093
1470;3096
1471;3098
1453;3100
1433;3103
1424;3105
1430;3108
1435;3110
1443;3113
1448;3116
1446;3118
1440;3121
1429;3123
1425;3126
1436;3128
1453;3130
1459;3133
1457;3135
1459;3138
1450;3140
1443;3142
1441;3145
1451;3147
1458;3150
1455;3152
1453;3154
1453;3158
1457;3160
1455;3163
1447;3165
1446;3167
1448;3170
1452;3172
1457;3175
1456;3177
1447;3179
1434;3182
1424;3184
1429;3187
1437;3189
1454;3192
1474;3194
1472;3196
1449;3200
1433;3202
1430;3205
1438;3207
1450;3209
1456;3212
1457;3214
1454;3217
1448;3219
1437;3221
1429;3224
1432;3226
1445;3229
1454;3231
1460;3233
1463;3236
1461;3238
1469;3241
1465;3244
1453;3246
1449;3249
1453;3251
1466;3254
1470;3256
1462;3258
1451;3261
1446;3263
1450;3266
1462;3268
1464;3270
1459;3273
1451;3275
1446;3278
1442;3280
1439;3282
1438;3286
1441;3288
1448;3291
1472;3293
1486;3296
1470;3298
1455;3300
1442;3303
1435;3305
1441;3308
1448;3310
1451;3312
1453;3315
1449;3317
1445;3320
1447;3322
1452;3324
1463;3328
1470;3330
1466;3333
1473;3335
1486;3337
1480;3340
1458;3342
1443;3345
1441;3347
1463;3349
1482;3352
1488;3354
1475;3357
1459;3359
1449;3361
1444;3364
1454;3366
1468;3369
1475;3372
1473;3374
1464;3377
1452;3379
1444;3382
1435;3384
1437;3386
1448;3389
1455;3391
1466;3394
1469;3396
1463;3399
1453;3401
1441;3403
1437;3406
1449;3408
1464;3411
1475;3414
1475;3416
1462;3419
1449;3421
1457;3424
1467;3426
1469;3428
1465;3431
1465;3433
1466;3436
1463;3438
1455;3440
1447;3443
1447;3445
1457;3448
1465;3450
1469;3452
1467;3456
1461;3458
1450;3461
1453;3463
1458;3465
1462;3468
1461;3470
1465;3473
1478;3475
1489;3477
1480;3480
1464;3482
1468;3485
1476;3487
1472;3489
1465;3492
1464;3494
1457;3497
1448;3500
1444;3503
1438;3505
1440;3507
1455;3510
1465;3512
1469;3515
1463;3517
1450;3519
1439;3522
1434;3524
1438;3527
1450;3529
1460;3531
1469;3534
1474;3536
1469;3539
1454;3542
1447;3544
1456;3547
1467;3549
1471;3552
1474;3554
1478;3556
1469;3559
1455;3561
1442;3564
1442;3566
1451;3568
1455;3571
1458;3573
1459;3576
1458;3578
1462;3581
1456;3584
1452;3586
1463;3589
1469;3591
1474;3594
1477;3596
1473;3598
1467;3601
1464;3603
1462;3606
1466;3608
1484;3610
1496;3613
1494;3615
1482;3618
1471;3620
1460;3622
1455;3625
1457;3628
1462;3631
1480;3633
1491;3635
1482;3638
1462;3640
1450;3643
1442;3645
1446;3647
1464;3650
1477;3652
1480;3655
1473;3657
1463;3659
1456;3662
1447;3664
1453;3667
1467;3670
1477;3673
1483;3675
1477;3677
1460;3680
1448;3682
1448;3685
1458;3687
1473;3689
1475;3692
1471;3694
1464;3697
1454;3699
1449;3701
1456;3704
1460;3706
1465;3709
1462;3712
1464;3714
1464;3717
1457;3719
1447;3722
1445;3724
1449;3726
1453;3729
1456;3731
1466;3734
1485;3736
1487;3738
1468;3741
1447;3743
1442;3746
1449;3748
1452;3750
1455;3753
1455;3756
1449;3759
1443;3761
1441;3764
1451;3766
1469;3768
1473;3771
1473;3773
1480;3776
1478;3778
1462;3780
1447;3783
1447;3785
1464;3788
1473;3790
1475;3792
1472;3795
1464;3798
1454;3801
1447;3803
1441;3805
1445;3808
1459;3810
1471;3813
1473;3815
1469;3817
1461;3820
1453;3822
1460;3825
1473;3827
1477;3829
1474;3832
1474;3834
1471;3837
1473;3840
1484;3843
1486;3845
1476;3847
1473;3850
1473;3852
1476;3855
1486;3857
1479;3859
1462;3862
1448;3864
1450;3867
1460;3869
1467;3871
1474;3874
1474;3876
1465;3879
1456;3881
1454;3884
1465;3887
1485;3889
1488;3892
1482;3894
1478;3896
1478;3899
1474;3901
1464;3904
1470;3906
1482;3908
1489;3911
1490;3913
1490;3916
1481;3918
1466;3920
1455;3923
1453;3926
1462;3929
1472;3931
1476;3934
1477;3936
1480;3938
1482;3941
1477;3943
1467;3946
1471;3948
1475;3950
1486;3953
1500;3955
1500;3958
1479;3960
1458;3962
1450;3965
1463;3968
1476;3971
1479;3973
1476;3975
1476;3978
1476;3980
1465;3983
1460;3985
1476;3987
1484;3990
1478;3992
1475;3995
1472;3997
1463;3999
1456;4002
1448;4004
1451;4007
1468;4009
1480;4012
1486;4015
1481;4017
1477;4020
1480;4022
1476;4025
1472;4027
1483;4029
1488;4032
1489;4034
1486;4037
1472;4039
1456;4041
1451;4044
1457;4046
1480;4049
1490;4051
1491;4054
1490;4057
1481;4059
1468;4062
1457;4064
1454;4066
1460;4069
1469;4071
1483;4074
1487;4076
1473;4078
1460;4081
1458;4083
1468;4086
1479;4088
1486;4090
1491;4093
1491;4096
1482;4099
1472;4101
1470;4103
1472;4106
1474;4108
1475;4111
1476;4113
1481;4115
1482;4118
1476;4120
1469;4123
1460;4125
1464;4128
1469;4130
1472;4132
1478;4135
1476;4137
1467;4141
1466;4143
1470;4145
1476;4148
1480;4150
1487;4153
1496;4155
1497;4157
1483;4160
1475;4162
1474;4165
1473;4167
1479;4169
1489;4172
1497;4174
1489;4177
1476;4179
1470;4182
1465;4185
1472;4187
1487;4190
1492;4192
1488;4194
1480;4197
1472;4199
1468;4202
1468;4204
1468;4206
1474;4209
1482;4211
1494;4214
1503;4216
1494;4219
1476;4221
1461;4224
1459;4227
1472;4229
1485;4232
1495;4234
1498;4236
1488;4239
1478;4241
1474;4244
1469;4246
1470;4248
1478;4251
1483;4253
1489;4256
1484;4258
1478;4260
1488;4263
1495;4265
1493;4269
1491;4271
1489;4273
1495;4276
1492;4278
1478;4281
1464;4283
1456;4285
1461;4288
1472;4290
1484;4293
1491;4295
1487;4298
1472;4300
1462;4302
1463;4305
1475;4307
1487;4311
1491;4313
1497;4315
1499;4318
1492;4320
1478;4323
1475;4325
1495;4327
1512;4330
1504;4332
1495;4335
1483;4337
1473;4339
1464;4342
1460;4344
1461;4347
1470;4349
1474;4352
1477;4355
1477;4357
1475;4360
1478;4362
1478;4364
1475;4367
1482;4369
1489;4372
1495;4374
1501;4376
1493;4379
1479;4381
1472;4384
1479;4386
1494;4389
1498;4391
1500;4393
1504;4397
1499;4399
1485;4402
1470;4404
1464;4406
1467;4409
1475;4411
1480;4414
1489;4416
1500;4418
1495;4421
1483;4423
1475;4426
1486;4428
1494;4430
1502;4433
1503;4435
1494;4439
1480;4441
1470;4443
1469;4446
1486;4448
1502;4451
1506;4453
1512;4455
1506;4458
1489;4460
1476;4463
1470;4465
1496;4468
1531;4470
1544;4472
1538;4475
1521;4477
1496;4481
1487;4483
1482;4485
1483;4488
1492;4490
1499;4493
1511;4495
1517;4497
1508;4500
1490;4502
1483;4505
1483;4507
1488;4509
1487;4512
1489;4514
1495;4517
1488;4519
1483;4521
1473;4525
1468;4527
1472;4530
1477;4532
1481;4534
1488;4537
1487;4539
1480;4542
1476;4544
1479;4546
1498;4549
1503;4551
1502;4554
1500;4556
1490;4559
1476;4561
1480;4563
1483;4567
1484;4569
1482;4572
1482;4574
1489;4576
1508;4579
1515;4581
1500;4584
1477;4586
1472;4588
1479;4591
1485;4593
1487;4596
1479;4598
1466;4600
1457;4603
1451;4605
1458;4609
1471;4611
1481;4613
1490;4616
1489;4618
1483;4621
1478;4623
1470;4626
1473;4628
1482;4630
1498;4633
1519;4635
1526;4638
1505;4640
1486;4642
1480;4645
1508;4647
1542;4651
1538;4653
1519;4655
1503;4658
1482;4660
1467;4663
1455;4665
1453;4667
1472;4670
1491;4672
1499;4675
1489;4677
1469;4679
1459;4682
1452;4684
1459;4687
1469;4689
1471;4691
1472;4695
1471;4697
1459;4700
1446;4702
1439;4705
1444;4707
1469;4709
1490;4712
1493;4714
1486;4717
1483;4719
1479;4721
1468;4724
1460;4726
1472;4729
1489;4731
1487;4733
1480;4737
1475;4739
1469;4742
1465;4744
1461;4746
1462;4749
1465;4751
1468;4754
1473;4756
1468;4758
1465;4761
1471;4763
1469;4766
1464;4768
1464;4770
1464;4773
1467;4775
1472;4779
1473;4781
1473;4784
1466;4786
1466;4788
1486;4791
1495;4793
1491;4796
1479;4798
1462;4800
1450;4803
1447;4805
1449;4808
1461;4810
1473;4812
1483;4815
1480;4817
1472;4820
1460;4823
1449;4825
1451;4828
1463;4830
1474;4833
1486;4835
1492;4837
1479;4840
1463;4842
1461;4845
1468;4847
1475;4849
1474;4852
1474;4854
1476;4857
1473;4859
1466;4862
1460;4865
1457;4867
1468;4870
1480;4872
1480;4875
1474;4877
1466;4879
1462;4882
1471;4884
1472;4887
1471;4889
1475;4891
1489;4894
1506;4896
1502;4899
1480;4901
1461;4903
1451;4907
1454;4909
1465;4912
1473;4914
1476;4916
1472;4919
1462;4921
1455;4924
1455;4926
1466;4928
1472;4931
1476;4933
1493;4936
1501;4938
1492;4941
1487;4943
1483;4945
1481;4948
1482;4951
1482;4954
1486;4956
1496;4958
1499;4961
1488;4963
1470;4966
1469;4968
1476;4970
1478;4973
1481;4975
1481;4978
1477;4980
1486;4982
1486;4985
1477;4987
1478;4990
1483;4993
1488;4995
1497;4998
1497;5000
1491;5003
1475;5005
1470;5007
1480;5010
1482;5012
1481;5015
1486;5017
1486;5020
1479;5022
1472;5024
1468;5027
1483;5029
1498;5032
1507;5035
1517;5037
1509;5040
1488;5042
1472;5045
1473;5047
1486;5049
1505;5052
1520;5054
1518;5057
1495;5059
1478;5061
1467;5064
1463;5066
1469;5069
1478;5071
1482;5073
1482;5076
1476;5079
1471;5082
1475;5084
1477;5087
1483;5089
1488;5091
1490;5094
1499;5096
1516;5099
1519;5101
1508;5103
1485;5106
1475;5108
1480;5111
1485;5113
1486;5115
1481;5118
1475;5121
1474;5124
1467;5126
1470;5128
1484;5131
1492;5133
1494;5136
1498;5138
1493;5140
1475;5143
1462;5145
1463;5148
1479;5150
1489;5152
1497;5155
1507;5157
1501;5160
1488;5163
1478;5166
1482;5168
1486;5170
1481;5173
1483;5175
1487;5178
1488;5180
1483;5182
1472;5185
1461;5187
1467;5190
1483;5192
1504;5194
1508;5197
1493;5199
1474;5202
1466;5204
1469;5207
1482;5210
1508;5212
1519;5215
1510;5217
1494;5219
1478;5222
1469;5224
1467;5227
1474;5229
1473;5231
1475;5234
1484;5236
1504;5239
1504;5241
1485;5244
1468;5246
1467;5249
1473;5252
1487;5254
1497;5257
1488;5259
1481;5261
1472;5264
1457;5266
1462;5269
1486;5271
1499;5273
1498;5276
1488;5278
1483;5281
1476;5283
1462;5285
1456;5288
1467;5291
1480;5294
1489;5296
1487;5298
1475;5301
1465;5303
1462;5306
1468;5308
1477;5310
1474;5313
1486;5315
1509;5318
1506;5320
1492;5322
1474;5325
1472;5327
1490;5330
1489;5332
1472;5336
1459;5338
1450;5340
1451;5343
1465;5345
1470;5348
1467;5350
1461;5352
1459;5355
1452;5357
1441;5360
1430;5362
1421;5364
1416;5367
1423;5369
1434;5372
1447;5374
1459;5377
1457;5380
1443;5382
1431;5385
1437;5387
1448;5389
1456;5392
1457;5394
1462;5397
1459;5399
1454;5401
1460;5404
1468;5406
1472;5409
1482;5411
1495;5414
1497;5416
1480;5419
1459;5422
1454;5424
1452;5427
1453;5429
1458;5431
1461;5434
1465;5436
1473;5439
1481;5441
1472;5443
1453;5446
1449;5448
1461;5451
1479;5453
1491;5455
1486;5458
1472;5460
1472;5464
1479;5466
1485;5468
1495;5471
1497;5473
1492;5476
1486;5478
1485;5480
1478;5483
1467;5485
1460;5488
1465;5490
1474;5493
1489;5495
1491;5497
1475;5500
1461;5502
1457;5506
1466;5508
1479;5510
1483;5513
1481;5515
1482;5518
1494;5520
1500;5522
1486;5525
1470;5527
1465;5530
1471;5532
1477;5534
1484;5537
1485;5539
1482;5542
1474;5544
1467;5547
1475;5550
1485;5552
1483;5555
1485;5557
1481;5559
1464;5562
1451;5564
1447;5567
1464;5569
1485;5572
1488;5574
1483;5576
1473;5579
1464;5581
1460;5584
1462;5586
1478;5588
1504;5592
1513;5594
1520;5597
1513;5599
1491;5601
1472;5604
1461;5606
1463;5609
1484;5611
1502;5613
1505;5616
1501;5618
1501;5621
1495;5623
1483;5625
1487;5628
1497;5630
1503;5634
1506;5636
1504;5638
1498;5641
1494;5643
1483;5646
1479;5648
1484;5651
1488;5653
1492;5655
1492;5658
1487;5660
1488;5663
1492;5665
1500;5667
1507;5670
1505;5672
1509;5676
1512;5678
1509;5680
1499;5683
1485;5685
1480;5688
1489;5690
1517;5692
1533;5695
1532;5697
1521;5700
1501;5702
1487;5704
1483;5707
1489;5709
1502;5712
1519;5714
1526;5716
1520;5720
1510;5722
1505;5725
1497;5727
1498;5730
1515;5732
1528;5734
1539;5737
1530;5739
1510;5742
1492;5744
1483;5746
1497;5749
1526;5751
1554;5754
1560;5756
1544;5758
1513;5762
1495;5764
1483;5767
1483;5769
1492;5771
1497;5774
1505;5776
1510;5779
1513;5781
1505;5783
1490;5786
1488;5788
1513;5791
1525;5793
1520;5795
1510;5798
1499;5800
1492;5804
1484;5806
1487;5809
1507;5811
1519;5813
1525;5816
1541;5818
1546;5821
1530;5823
1512;5825
1498;5828
1499;5830
1502;5833
1510;5835
1520;5837
1517;5840
1502;5842
1486;5846
1481;5848
1493;5850
1504;5853
1508;5855
1506;5858
1505;5860
1512;5862
1530;5865
1534;5867
1533;5870
1528;5872
1522;5874
1530;5877
1529;5879
1510;5882
1488;5884
1477;5888
1483;5890
1493;5892
1496;5895
1505;5897
1510;5900
1500;5902
1481;5904
1472;5907
1477;5909
1488;5912
1494;5914
1497;5916
1501;5919
1520;5921
1539;5924
1523;5926
1504;5928
1498;5932
1498;5934
1505;5937
1502;5939
1491;5941
1484;5944
1480;5946
1480;5949
1499;5951
1508;5953
1505;5956
1493;5958
1480;5961
1473;5963
1471;5966
1483;5968
1504;5970
1510;5974
1514;5976
1525;5979
1523;5981
1504;5983
1488;5986
1477;5988
1484;5991
1491;5993
1493;5995
1492;5998
1484;6000
1475;6003
1471;6005
1475;6007
1493;6010
1506;6012
1504;6016
1501;6018
1493;6020
1480;6023
1470;6025
1473;6028
1487;6030
1495;6032
1512;6035
1548;6037
1559;6040
1530;6042
1503;6045
1486;6047
1484;6049
1489;6052
1491;6054
1496;6057
1494;6060
1483;6062
1476;6065
1472;6067
1478;6070
1487;6072
1494;6074
1499;6077
1503;6079
1491;6082
1488;6084
1486;6086
1485;6089
1490;6091
1492;6094
1502;6096
1503;6098
1497;6102
1495;6104
1490;6107
1487;6109
1490;6112
1491;6114
1495;6116
1497;6119
1495;6121
1491;6124
1484;6126
1474;6128
1477;6131
1481;6133
1484;6136
1488;6138
1489;6140
1493;6144
1489;6146
1477;6149
1495;6151
1515;6153
1510;6156
1492;6158
1477;6161
1465;6163
1453;6165
1451;6168
1457;6170
1465;6173
1470;6175
1472;6178
1470;6180
1472;6182
1469;6185
1461;6188
1468;6191
1474;6193
1482;6195
1485;6198
1477;6200
1464;6203
1466;6205
1481;6207
1492;6210
1485;6212
1479;6215
1478;6217
1471;6219
1457;6222
1445;6224
1437;6227
1446;6230
1459;6232
1465;6235
1469;6237
1468;6240
1467;6242
1465;6244
1463;6247
1467;6249
1476;6252
1477;6254
1475;6257
1470;6259
1464;6261
1460;6264
1464;6266
1490;6269
1508;6272
1501;6274
1490;6277
1479;6279
1463;6282
1456;6284
1452;6286
1453;6289
1464;6291
1478;6294
1483;6296
1479;6298
1466;6301
1458;6303
1459;6306
1461;6308
1467;6310
1473;6313
1477;6316
1481;6319
1487;6321
1487;6324
1473;6326
1467;6328
1484;6331
1492;6333
1491;6336
1491;6338
1488;6340
1490;6343
1493;6345
1483;6348
1483;6350
1486;6352
1485;6355
1482;6358
1474;6361
1462;6363
1459;6365
1472;6368
1486;6370
1488;6373
1484;6375
1488;6377
1501;6380
1503;6382
1487;6385
1467;6387
1470;6390
1482;6392
1488;6394
1499;6397
1500;6400
1488;6403
1465;6405
1453;6407
1455;6410
1467;6412
1475;6415
1483;6417
1484;6419
1483;6422
1481;6424
1470;6427
1462;6429
1468;6431
1472;6434
1485;6436
1491;6439
1482;6441
1481;6444
1482;6447
1477;6449
1483;6452
1503;6454
1514;6456
1502;6459
1479;6461
1462;6464
1453;6466
1455;6468
1468;6471
1477;6473
1484;6476
1495;6478
1498;6480
1497;6483
1484;6486
1470;6489
1471;6491
1474;6494
1477;6496
1483;6498
1482;6501
1483;6503
1480;6506
1469;6508
1472;6510
1477;6513
1486;6515
1496;6518
1500;6520
1490;6522
1479;6525
1466;6528
1467;6531
1495;6533
1508;6535
1507;6538
1491;6540
1477;6543
1468;6545
1467;6547
1485;6550
1503;6552
1499;6555
1489;6557
1480;6559
1464;6562
1456;6564
1456;6567
1467;6569
1476;6572
1478;6575
1480;6577
1478;6580
1471;6582
1462;6585
1451;6587
1451;6589
1463;6592
1474;6594
1483;6597
1485;6599
1475;6601
1469;6604
1463;6606
1475;6609
1494;6611
1499;6614
1497;6617
1495;6619
1482;6622
1467;6624
1459;6626
1455;6629
1468;6631
1480;6634
1491;6636
1494;6638
1484;6641
1472;6643
1468;6646
1467;6648
1474;6650
1479;6653
1483;6656
1488;6659
1483;6661
1471;6663
1461;6666
1460;6668
1470;6671
1480;6673
1481;6676
1482;6678
1478;6680
1469;6683
1463;6685
1461;6688
1469;6690
1476;6692
1495;6695
1517;6697
1521;6701
1504;6703
1491;6705
1495;6708
1505;6710
1512;6713
1506;6715
1503;6717
1495;6720
1487;6722
1482;6725
1473;6727
1470;6729
1477;6732
1484;6734
1488;6737
1484;6739
1475;6742
1468;6745
1463;6747
1469;6750
1484;6752
1500;6754
1510;6757
1509;6759
1504;6762
1498;6764
1485;6767
1477;6769
1483;6771
1497;6774
1510;6776
1506;6779
1488;6781
1479;6784
1473;6787
1481;6789
1499;6792
1504;6794
1503;6796
1498;6799
1489;6801
1486;6804
1492;6806
1494;6808
1497;6811
1495;6813
1497;6816
1496;6818
1487;6820
1479;6823
1480;6825
1483;6829
1489;6831
1498;6833
1500;6836
1496;6838
1483;6841
1472;6843
1471;6846
1477;6848
1498;6850
1510;6853
1507;6855
1503;6858
1494;6860
1486;6862
1483;6865
1478;6867
1480;6871
1495;6873
1506;6875
1511;6878
1503;6880
1488;6883
1481;6885
1479;6887
1483;6890
1493;6892
1508;6895
1514;6897
1505;6899
1488;6902
1474;6904
1465;6907
1466;6909
1477;6912
1490;6915
1518;6917
1533;6920
1523;6922
1497;6924
1475;6927
1470;6929
1485;6932
1501;6934
1507;6937
1499;6939
1492;6941
1489;6944
1479;6946
1469;6949
1478;6951
1493;6953
1501;6957
1494;6959
1480;6962
1468;6964
1463;6966
1462;6969
1477;6971
1488;6974
1492;6976
1490;6978
1486;6981
1492;6983
1488;6986
1484;6988
1490;6990
1493;6993
1493;6995
1496;6999
1495;7001
1488;7003
1478;7006
1471;7008
1479;7011
1489;7013
1498;7016
1496;7018
1485;7020
1469;7023
1459;7025
1456;7028
1482;7030
1507;7032
1510;7035
1514;7037
1521;7041
1513;7043
1495;7045
1471;7048
1469;7050
1482;7053
1494;7055
1512;7057
1520;7060
1507;7062
1490;7065
1469;7067
1465;7069
1477;7072
1485;7074
1487;7077
1481;7079
1472;7083
1462;7085
1459;7087
1468;7090
1479;7092
1484;7095
1487;7097
1487;7099
1474;7102
1463;7104
1468;7107
1488;7109
1503;7111
1497;7114
1496;7116
1495;7119
1485;7121
1475;7123
1475;7127
1475;7129
1477;7132
1480;7134
1483;7136
1484;7139
1477;7141
1467;7144
1459;7146
1459;7149
1466;7151
1481;7153
1497;7156
1507;7158
1502;7161
1483;7163
1477;7165
1477;7169
1484;7171
1484;7174
1484;7176
1488;7178
1489;7181
1483;7183
1473;7186
1465;7188
1472;7190
1484;7193
1494;7195
1497;7198
1486;7200
1475;7202
1470;7205
1471;7207
1481;7211
1488;7213
1486;7215
1486;7218
1483;7220
1471;7223
1459;7225
1455;7228
1464;7230
1473;7232
1477;7235
1483;7237
1481;7240
1475;7242
1475;7244
1476;7247
1474;7249
1478;7252
1480;7255
1487;7257
1502;7260
1505;7262
1488;7265
1470;7267
1462;7269
1469;7272
1476;7274
1480;7277
1478;7279
1469;7281
1465;7284
1464;7286
1467;7289
1485;7291
1504;7294
1504;7297
1496;7299
1481;7302
1466;7304
1457;7307
1453;7309
1459;7311
1482;7314
1494;7316
1490;7319
1478;7321
1473;7323
1474;7326
1471;7328
1479;7331
1496;7333
1498;7335
1492;7339
1485;7341
1475;7344
1467;7346
1462;7348
1468;7351
1478;7353
1488;7356
1501;7358
1506;7361
1489;7363
1469;7365
1456;7368
1458;7370
1468;7373
1478;7375
1487;7377
1486;7380
1482;7383
1474;7386
1467;7388
1469;7390
1487;7393
1498;7395
1508;7398
1515;7400
1520;7402
1520;7405
1513;7407
1507;7410
1506;7412
1501;7414
1491;7417
1482;7419
1471;7422
1460;7425
1453;7427
1445;7430
1451;7432
1461;7435
1472;7437
1477;7440
1470;7442
1457;7444
1448;7447
1450;7449
1469;7452
1495;7454
1516;7456
1528;7459
1517;7461
1505;7464
1494;7467
1478;7469
1472;7472
1473;7474
1480;7477
1483;7479
1478;7481
1476;7484
1469;7486
1456;7489
1458;7491
1467;7493
1471;7496
1472;7498
1469;7501
1465;7503
1459;7506
1454;7508
1471;7511
1492;7514
1495;7516
1489;7519
1494;7521
1492;7523
1478;7526
1459;7528
1460;7531
1477;7533
1487;7535
1486;7538
1481;7540
1475;7543
1470;7545
1463;7547
1464;7550
1474;7553
1476;7556
1479;7558
1481;7560
1482;7563
1484;7565
1481;7568
1474;7570
1476;7573
1481;7575
1487;7577
1488;7580
1480;7582
1467;7585
1458;7587
1457;7589
1466;7592
1475;7595
1498;7598
1512;7600
1495;7602
1470;7605
1458;7607
1457;7610
1473;7612
1484;7614
1491;7617
1486;7619
1476;7622
1470;7624
1467;7626
1465;7629
1470;7631
1473;7634
1478;7636
1492;7640
1497;7642
1481;7644
1465;7647
1468;7649
1486;7652
1491;7654
1483;7656
1480;7659
1477;7661
1489;7664
1504;7666
1516;7668
1542;7671
1549;7673
1530;7676
1516;7678
1494;7681
1473;7684
1454;7686
1444;7689
1450;7691
1464;7693
1472;7696
1482;7698
1486;7701
1498;7703
1494;7705
1486;7708
1484;7710
1486;7713
1479;7715
1472;7718
1463;7720
1453;7723
1451;7726
1450;7728
1452;7731
1463;7733
1472;7735
1478;7738
1486;7740
1500;7743
1499;7745
1474;7747
1472;7750
1488;7752
1499;7755
1490;7757
1482;7759
1481;7762
1488;7764
1479;7768
1469;7770
1479;7772
1489;7775
1489;7777
1483;7780
1471;7782
1457;7785
1447;7787
1454;7789
1486;7792
1507;7794
1501;7797
1491;7799
1478;7801
1467;7804
1461;7806
1461;7810
1473;7812
1492;7814
1501;7817
1496;7819
1487;7822
1472;7824
1463;7826
1461;7829
1466;7831
1471;7834
1473;7836
1489;7838
1502;7841
1498;7843
1479;7846
1461;7848
1464;7851
1472;7854
1481;7856
1496;7859
1492;7861
1483;7864
1476;7866
1464;7868
1459;7871
1466;7873
1475;7876
1488;7878
1493;7880
1484;7883
1474;7885
1467;7888
1472;7890
1482;7892
1483;7896
1486;7898
1486;7901
1473;7903
1463;7905
1464;7908
1480;7910
1501;7913
1510;7915
1514;7917
1506;7920
1486;7922
1473;7925
1467;7927
1471;7929
1484;7932
1490;7934
1501;7938
1502;7940
1501;7943
1501;7945
1493;7947
1479;7950
1480;7952
1487;7955
1492;7957
1491;7959
1488;7962
1485;7964
1479;7967
1467;7969
1472;7971
1488;7974
1502;7976
1502;7980
1492;7982
1477;7984
1469;7987
1465;7989
1473;7992
1495;7994
1522;7996
1525;7999
1503;8001
1484;8004
1481;8006
1490;8009
1499;8011
1498;8013
1491;8016
1493;8018
1497;8022
1490;8024
1475;8026
1472;8029
1486;8031
1501;8034
1497;8036
1497;8038
1491;8041
1479;8043
1467;8046
1460;8048
1465;8050
1480;8053
1489;8055
1503;8058
1502;8060
1490;8062
1482;8066
1475;8068
1475;8071
1488;8073
1511;8075
1521;8078
1509;8080
1488;8083
1476;8085
1472;8087
1479;8090
1493;8092
1493;8095
1489;8097
1491;8100
1501;8102
1496;8104
1480;8108
1469;8110
1477;8113
1484;8115
1492;8117
1508;8120
1517;8122
1504;8125
1480;8127
1468;8129
1473;8132
1482;8134
1493;8137
1498;8139
1492;8141
1477;8144
1463;8146
1462;8150
1483;8152
1499;8154
1499;8157
1503;8159
1504;8162
1499;8164
1489;8166
1482;8169
1490;8171
1509;8174
1514;8176
1506;8178
1491;8181
1484;8183
1489;8186
1491;8188
1508;8192
1516;8194
1505;8196
1492;8199
1484;8201
1484;8204
1488;8206
1484;8208
1488;8211
1518;8213
1546;8216
1548;8218
1520;8220
1486;8223
1470;8225
1469;8228
1484;8230
1509;8232
1509;8236
1497;8238
1487;8241
1473;8243
1455;8245
1440;8248
1441;8250
1465;8253
1484;8255
1494;8257
1484;8260
1474;8262
1465;8265
1463;8267
1464;8270
1471;8272
1475;8274
1474;8278
1471;8280
1465;8283
1458;8285
1451;8287
1453;8290
1469;8292
1478;8295
1482;8297
1488;8299
1483;8302
1472;8304
1473;8307
1475;8309
1488;8311
1490;8314
1482;8316
1484;8320
1489;8322
1483;8324
1471;8327
1460;8329
1462;8332
1468;8334
1469;8336
1478;8339
1486;8341
1482;8344
1472;8346
1456;8349
1451;8351
1459;8353
1466;8356
1482;8358
1494;8361
1483;8364
1460;8366
1449;8369
1451;8371
1469;8374
1483;8376
1496;8378
1504;8381
1502;8383
1487;8386
1467;8388
1466;8390
1472;8393
1471;8395
1473;8398
1474;8400
1467;8402
1462;8406
1464;8408
1481;8411
1500;8413
1508;8415
1500;8418
1491;8420
1479;8423
1473;8425
1468;8428
1463;8430
1482;8432
1494;8435
1495;8437
1491;8440
1499;8442
1505;8444
1491;8448
1471;8450
1474;8453
1485;8455
1491;8457
1497;8460
1504;8462
1493;8465
1474;8467
1468;8469
1479;8472
1487;8474
1489;8477
1492;8479
1488;8481
1475;8484
1469;8486
1467;8489
1473;8492
1497;8494
1520;8497
1523;8499
1508;8502
1490;8504
1480;8507
1470;8509
1476;8511
1488;8514
1511;8516
1525;8519
1517;8521
1504;8523
1497;8526
1496;8528
1496;8531
1499;8534
1496;8536
1502;8539
1511;8541
1535;8544
1564;8546
1571;8548
1555;8551
1541;8553
1538;8556
1534;8558
1518;8560
1489;8563
1470;8565
1458;8568
1461;8570
1501;8573
1527;8576
1529;8578
1506;8581
1483;8583
1466;8586
1458;8588
1458;8590
1468;8593
1492;8595
1512;8598
1517;8600
1494;8602
1473;8605
1461;8607
1458;8610
1478;8612
1490;8614
1493;8617
1500;8620
1507;8623
1506;8625
1499;8627
1485;8630
1482;8632
1492;8635
1507;8637
1525;8640
1518;8642
1497;8644
1472;8647
1461;8649
1472;8652
1488;8654
1491;8656
1490;8659
1483;8662
1476;8665
1469;8667
1467;8669
1475;8672
1491;8674
1496;8677
1498;8679
1493;8681
1496;8684
1517;8686
1508;8689
1490;8691
1483;8693
1485;8696
1500;8698
1520;8701
1508;8704
1484;8706
1464;8709
1461;8711
1466;8714
1472;8716
1479;8719
1491;8721
1491;8723
1483;8726
1486;8728
1495;8731
1502;8733
1511;8735
1514;8738
1505;8740
1485;8743
1481;8745
1495;8748
1493;8751
1490;8753
1492;8756
1494;8758
1491;8760
1484;8763
1475;8765
1466;8768
1466;8770
1482;8772
1494;8775
1501;8777
1500;8780
1493;8782
1478;8784
1467;8787
1471;8790
1508;8793
1521;8795
1505;8798
1497;8800
1492;8802
1479;8805
1469;8807
1461;8810
1488;8812
1509;8814
1506;8817
1501;8819
1500;8822
1496;8824
1488;8826
1472;8829
1469;8832
1478;8835
1487;8837
1509;8839
1536;8842
1563;8844
1558;8847
1521;8849
1495;8851
1485;8854
1480;8856
1479;8859
1479;8861
1473;8863
1466;8866
1468;8868
1476;8871
1480;8873
1479;8877
1487;8879
1498;8881
1494;8884
1481;8886
1467;8889
1491;8891
1537;8893
1558;8896
1565;8898
1551;8901
1516;8903
1489;8905
1471;8908
1464;8910
1475;8913
1491;8915
1498;8918
1493;8921
1484;8923
1494;8926
1502;8928
1495;8930
1495;8933
1500;8935
1503;8938
1507;8940
1506;8943
1490;8945
1473;8947
1463;8950
1475;8952
1495;8955
1500;8957
1497;8960
1490;8963
1489;8965
1489;8968
1484;8970
1496;8972
1511;8975
1516;8977
1517;8980
1503;8982
1490;8984
1484;8987
1478;8989
1475;8992
1484;8994
1492;8996
1509;8999
1509;9001
1495;9005
1480;9007
1471;9009
1476;9012
1495;9014
1505;9017
1507;9019
1507;9022
1513;9024
1528;9026
1518;9029
1495;9031
1491;9034
1491;9036
1491;9038
1487;9041
1489;9043
1494;9047
1486;9049
1480;9051
1485;9054
1499;9056
1508;9059
1513;9061
1523;9063
1534;9066
1517;9068
1495;9071
1492;9073
1497;9075
1511;9078
1528;9080
1529;9083
1508;9085
1493;9088
1506;9091
1521;9093
1526;9096
1530;9098
1523;9101
1504;9103
1491;9105
1478;9108
1474;9110
1478;9113
1482;9115
1482;9117
1485;9120
1483;9122
1488;9125
1487;9127
1475;9129
1469;9133
1475;9135
1481;9138
1489;9140
1485;9142
1471;9145
1472;9147
1481;9150
1494;9152
1501;9154
1512;9157
1514;9159
1502;9162
1501;9164
1501;9167
1484;9169
1478;9171
1490;9175
1511;9177
1514;9180
1497;9182
1476;9184
1468;9187
1465;9189
1467;9192
1474;9194
1486;9196
1502;9199
1501;9201
1488;9204
1484;9206
1506;9208
1514;9211
1502;9213
1492;9217
1487;9219
1486;9221
1482;9224
1471;9226
1460;9229
1468;9231
1493;9234
1499;9236
1495;9238
1489;9241
1486;9243
1485;9246
1480;9248
1471;9250
1474;9253
1480;9255
1487;9259
1502;9261
1518;9263
1512;9266
1485;9268
1473;9271
1480;9273
1487;9275
1495;9278
1495;9280
1493;9283
1493;9285
1482;9287
1471;9290
1474;9292
1498;9295
1514;9297
1509;9300
1496;9303
1482;9305
1473;9308
1472;9310
1484;9313
1499;9315
1498;9317
1496;9320
1487;9322
1479;9325
1481;9327
1485;9329
1498;9332
1516;9334
1530;9337
1528;9339
1512;9341
1491;9345
1479;9347
1476;9350
1488;9352
1498;9354
1496;9357
1495;9359
1500;9362
1511;9364
1516;9367
1505;9369
1493;9371
1503;9374
1516;9376
1526;9379
1520;9381
1513;9383
1518;9387
1513;9389
1496;9392
1500;9394
1524;9396
1541;9399
1548;9401
1534;9404
1533;9406
1542;9408
1534;9411
1525;9413
1529;9416
1527;9418
1510;9420
1487;9423
1468;9425
1458;9428
1457;9431
1474;9434
1492;9436
1495;9438
1489;9441
1478;9443
1472;9446
1500;9448
1510;9450
1498;9453
1485;9455
1483;9458
1489;9460
1491;9462
1485;9465
1488;9467
1494;9470
1506;9473
1512;9475
1511;9478
1520;9480
1518;9483
1502;9485
1486;9487
1467;9490
1463;9492
1477;9495
1495;9497
1506;9500
1508;9502
1492;9504
1466;9507
1453;9509
1458;9512
1477;9515
1512;9517
1527;9520
1515;9522
1485;9525
1466;9527
1469;9529
1491;9532
1503;9534
1497;9537
1497;9539
1491;9541
1470;9544
1457;9546
1447;9549
1450;9551
1460;9553
1465;9556
1479;9559
1490;9562
1488;9564
1477;9567
1479;9569
1482;9571
1489;9574
1499;9576
1511;9579
1519;9581
1506;9583
1492;9586
1472;9588
1457;9591
1455;9593
1458;9595
1468;9598
1480;9601
1476;9604
1457;9606
1449;9608
1447;9611
1454;9613
1466;9616
1484;9618
1493;9620
1492;9623
1487;9625
1482;9628
1477;9630
1484;9632
1488;9635
1488;9637
1498;9640
1498;9643
1485;9646
1473;9648
1461;9650
1461;9653
1473;9655
1480;9658
1479;9660
1472;9662
1461;9665
1467;9667
1481;9670
1489;9672
1488;9674
1487;9677
1516;9679
1532;9682
1520;9684
1495;9687
1476;9690
1469;9692
1476;9695
1481;9697
1483;9699
1481;9702
1475;9704
1468;9707
1460;9709
1462;9711
1479;9714
1489;9716
1494;9719
1489;9721
1476;9724
1474;9726
1493;9729
1513;9732
1521;9734
1520;9737
1514;9739
1500;9741
1482;9744
1469;9746
1466;9749
1468;9751
1476;9753
1495;9756
1517;9758
1521;9761
1498;9763
1474;9765
1470;9768
1482;9771
1496;9774
1497;9776
1491;9778
1486;9781
1477;9783
1464;9786
1456;9788
1453;9791
1465;9793
1484;9795
1497;9798
1507;9800
1498;9803
1484;9805
1473;9807
1466;9810
1473;9812
1490;9816
1525;9818
1539;9820
1525;9823
1491;9825
1471;9828
1460;9830
1458;9832
1469;9835
1480;9837
1485;9840
1484;9842
1482;9844
1474;9847
1465;9849
1477;9852
1496;9854
1502;9857
1494;9860
1484;9862
1478;9865
1485;9867
1483;9870
1470;9872
1469;9874
1476;9877
1487;9879
1498;9882
1494;9884
1488;9886
1488;9889
1487;9891
1491;9894
1491;9896
1499;9899
1504;9902
1521;9904
1524;9907
1502;9909
1487;9911
1482;9914
1479;9916
1476;9919
1475;9921
1468;9923
1458;9926
1451;9928
1458;9931
1490;9933
1508;9936
1501;9938
1492;9940
1491;9944
1495;9946
1490;9949
1483;9951
1495;9953
1507;9956
1517;9958
1519;9961
1503;9963
1479;9965
1467;9968
1476;9970
1498;9973
1503;9975
1488;9977
1482;9980
1477;9982
1467;9986
1469;9988
1473;9990
1478;9993
1483;9995
1482;9998
1482;10000
1480;10003
1489;10005
1497;10007
1488;10010
1486;10012
1495;10015
1500;10017
1507;10020
1505;10022
1493;10025
1481;10028
1473;10031
1478;10033
1492;10035
1496;10038
1497;10040
1510;10043
1514;10045
1499;10048
1480;10050
1475;10053
1481;10055
1482;10058
1493;10060
1504;10063
1514;10065
1502;10067
1492;10071
1491;10073
1494;10076
1491;10078
1489;10081
1490;10083
1498;10086
1514;10088
1520;10091
1514;10093
1502;10095
1496;10098
1494;10100
1493;10103
1486;10105
1478;10108
1470;10110
1483;10114
1494;10116
1500;10119
1503;10121
1499;10123
1485;10126
1481;10128
1481;10131
1492;10133
1513;10136
1526;10138
1528;10141
1515;10143
1493;10146
1476;10148
1465;10150
1479;10153
1505;10156
1510;10159
1502;10161
1490;10164
1480;10166
1472;10169
1469;10171
1484;10174
1499;10176
1518;10179
1543;10181
1541;10183
1511;10186
1490;10188
1487;10191
1502;10193
1513;10196
1530;10199
1533;10202
1511;10204
1491;10207
1478;10209
1471;10211
1478;10214
1485;10216
1489;10219
1493;10221
1489;10224
1485;10226
1482;10229
1489;10231
1501;10234
1505;10236
1511;10238
1519;10242
1513;10244
1498;10247
1489;10249
1490;10252
1503;10254
1509;10257
1509;10259
1506;10262
1495;10264
1485;10267
1485;10269
1492;10271
1499;10274
1495;10276
1499;10279
1500;10281
1489;10285
1479;10287
1480;10290
1501;10292
1513;10295
1505;10297
1507;10299
1503;10302
1485;10304
1471;10307
1465;10309
1470;10312
1482;10314
1493;10317
1504;10319
1504;10322
1499;10324
1488;10327
1476;10330
1484;10332
1499;10335
1499;10337
1496;10340
1502;10342
1492;10345
1484;10347
1484;10350
1485;10352
1490;10354
1491;10357
1496;10359
1505;10362
1508;10364
1499;10368
1476;10370
1466;10373
1473;10375
1480;10378
1485;10380
1486;10383
1484;10385
1475;10387
1461;10390
1461;10392
1482;10395
1519;10397
1538;10400
1523;10402
1499;10405
1482;10407
1467;10411
1462;10413
1471;10415
1479;10418
1489;10420
1504;10423
1500;10425
1482;10428
1468;10430
1470;10433
1479;10435
1483;10438
1489;10440
1488;10442
1495;10445
1510;10447
1506;10450
1499;10452
1506;10456
1502;10458
1504;10461
1508;10463
1509;10466
1500;10468
1480;10471
1470;10473
1479;10475
1488;10478
1499;10480
1501;10483
1493;10485
1492;10488
1492;10490
1490;10493
1493;10496
1500;10499
1504;10501
1494;10503
1480;10506
1472;10508
1466;10511
1475;10513
1488;10516
1512;10518
1527;10521
1520;10523
1500;10526
1499;10528
1495;10530
1493;10533
1500;10535
1517;10539
1530;10541
1517;10544
1492;10546
1475;10549
1464;10551
1472;10554
1500;10556
1513;10558
1501;10561
1487;10563
1473;10566
1464;10568
1462;10571
1473;10573
1490;10576
1503;10578
1520;10582
1528;10584
1516;10587
1491;10589
1483;10591
1493;10594
1511;10596
1522;10599
1518;10601
1511;10604
1504;10606
1510;10609
1512;10611
1512;10614
1513;10616
1517;10618
1533;10621
1530;10624
1507;10627
1488;10629
1480;10632
1489;10634
1505;10637
1535;10639
1561;10642
1556;10644
1528;10646
1504;10649
1486;10651
1482;10654
1489;10656
1494;10659
1494;10661
1488;10664
1484;10667
1479;10670
1468;10672
1476;10674
1490;10677
1492;10679
1490;10682
1491;10684
1492;10687
1488;10689
1498;10692
1505;10694
1499;10697
1493;10699
1488;10702
1479;10704
1466;10706
1468;10710
1482;10712
1497;10715
1503;10717
1499;10720
1491;10722
1480;10725
1471;10727
1471;10730
1480;10732
1492;10734
1498;10737
1502;10739
1498;10742
1489;10744
1486;10747
1485;10749
1485;10753
1491;10755
1492;10758
1500;10760
1510;10762
1499;10765
1479;10767
1472;10770
1474;10772
1505;10775
1531;10777
1527;10780
1505;10782
1488;10785
1486;10787
1485;10790
1480;10792
1487;10795
1495;10798
1504;10800
1507;10803
1502;10805
1487;10808
1470;10810
1472;10813
1498;10815
1510;10818
1509;10820
1505;10822
1501;10825
1503;10827
1496;10830
1485;10832
1487;10835
1495;10838
1498;10841
1507;10843
1515;10846
1516;10848
1510;10850
1499;10853
1491;10855
1488;10858
1489;10860
1489;10863
1486;10865
1481;10868
1476;10870
1479;10873
1490;10875
1508;10878
1528;10881
1527;10883
1499;10886
1477;10888
1464;10891
1464;10893
1485;10896
1521;10898
1543;10901
1538;10903
1512;10906
1487;10908
1470;10910
1467;10913
1476;10915
1482;10918
1500;10920
1516;10924
1502;10926
1479;10929
1465;10931
1470;10934
1499;10936
1519;10938
1532;10941
1523;10943
1497;10946
1482;10948
1483;10951
1487;10953
1487;10956
1483;10958
1487;10961
1490;10963
1499;10966
1504;10969
1492;10971
1484;10974
1486;10976
1495;10979
1505;10981
1495;10984
1475;10986
1464;10989
1466;10991
1501;10994
1526;10996
1514;10998
1498;11001
1483;11003
1468;11006
1455;11009
1447;11012
1456;11014
1483;11017
1502;11019
1505;11022
1493;11024
1478;11026
1469;11029
1463;11031
1484;11034
1506;11036
1505;11039
1496;11041
1489;11044
1482;11046
1482;11049
1481;11052
1490;11054
1498;11057
1493;11059
1497;11062
1511;11064
1506;11067
1482;11069
1464;11072
1467;11074
1477;11077
1505;11079
1517;11082
1496;11084
1478;11086
1470;11089
1469;11091
1472;11095
1476;11097
1479;11100
1490;11102
1493;11105
1483;11107
1470;11110
1461;11112
1471;11114
1484;11117
1496;11119
1505;11122
1496;11124
1484;11127
1485;11129
1490;11132
1495;11134
1506;11138
1528;11140
1524;11142
1496;11145
1472;11147
1461;11150
1459;11152
1475;11155
1489;11157
1494;11160
1496;11162
1489;11165
1479;11167
1469;11170
1462;11172
1467;11174
1473;11177
1482;11180
1503;11183
1501;11185
1484;11188
1466;11190
1468;11193
1483;11195
1493;11198
1495;11200
1486;11202
1471;11205
1459;11207
1453;11210
1467;11212
1494;11215
1510;11217
1516;11220
1505;11223
1486;11226
1499;11228
1509;11230
1494;11233
1479;11235
1476;11238
1477;11240
1475;11243
1467;11245
1461;11248
1454;11250
1451;11253
1460;11255
1470;11257
1479;11260
1480;11262
1468;11266
1460;11268
1468;11271
1493;11273
1520;11276
1540;11278
1532;11281
1511;11283
1493;11286
1482;11288
1467;11290
1453;11293
1456;11295
1462;11298
1467;11300
1470;11303
1467;11305
1463;11309
1460;11311
1461;11314
1474;11316
1487;11318
1497;11321
1497;11323
1491;11326
1478;11328
1458;11331
1457;11333
1471;11336
1474;11338
1475;11341
1480;11343
1480;11345
1470;11348
1462;11351
1467;11354
1476;11356
1481;11359
1495;11361
1530;11364
1532;11366
1493;11369
1464;11371
1457;11374
1464;11376
1469;11378
1484;11381
1493;11383
1479;11386
1458;11388
1448;11392
1452;11394
1465;11397
1472;11399
1478;11402
1477;11404
1469;11406
1467;11409
1464;11411
1466;11414
1483;11416
1516;11419
1535;11421
1520;11424
1490;11426
1479;11429
1471;11431
1478;11433
1497;11437
1505;11439
1504;11442
1488;11444
1473;11447
1464;11449
1453;11452
1457;11454
1476;11457
1490;11459
1498;11461
1493;11464
1483;11466
1478;11469
1479;11471
1493;11474
1513;11476
1541;11480
1543;11482
1514;11485
1491;11487
1473;11490
1459;11492
1470;11494
1485;11497
1491;11499
1513;11502
1534;11504
1544;11507
1545;11509
1520;11512
1495;11514
1487;11517
1488;11520
1499;11522
1495;11525
1489;11527
1481;11530
1462;11532
1458;11535
1471;11537
1482;11540
1486;11542
1489;11545
1483;11547
1463;11549
1452;11552
1457;11554
1462;11557
1467;11559
1475;11563
1473;11565
1471;11568
1483;11570
1487;11573
1485;11575
1495;11578
1505;11580
1501;11582
1494;11585
1489;11587
1483;11590
1469;11592
1463;11595
1471;11597
1478;11600
1481;11602
1470;11606
1460;11608
1458;11610
1471;11613
1502;11615
1509;11618
1493;11620
1481;11623
1467;11625
1456;11628
1446;11630
1442;11633
1454;11635
1476;11637
1500;11640
1499;11642
1481;11645
1468;11648
1459;11651
1458;11653
1469;11656
1480;11658
1489;11661
1488;11663
1481;11666
1487;11668
1493;11670
1486;11673
1475;11675
1472;11678
1473;11680
1475;11683
1467;11685
1460;11688
1461;11691
1464;11694
1479;11696
1510;11698
1524;11701
1510;11703
