mV;time
0;0
1484;2
1489;4
1486;7
1488;9
1504;11
1504;13
1505;16
1498;18
1503;20
1492;23
1494;25
1488;27
1506;30
1500;32
1506;34
1494;36
1499;39
1488;41
1488;44
1485;47
1493;49
1503;51
1498;54
1495;56
1491;58
1485;61
1489;63
1501;65
1497;67
1504;70
1494;72
1508;74
1490;77
1487;79
1497;81
1484;84
1480;87
1488;89
1503;91
1501;94
1504;96
1495;98
1484;101
1499;103
1482;105
1495;108
1487;110
1493;112
1488;115
1497;117
1493;120
1502;122
1482;124
1493;128
1505;130
1502;132
1504;135
1508;137
1498;139
1496;142
1482;144
1497;146
1488;149
1500;151
1496;153
1493;156
1499;158
1488;161
1482;163
1496;165
1482;168
1503;171
1501;173
1493;176
1491;178
1499;180
1485;183
1481;185
1482;187
1499;190
1498;192
1487;194
1489;197
1485;199
1481;202
1485;204
1476;206
1481;209
1486;211
1485;214
1485;217
1485;219
1500;221
1498;224
1487;226
1481;228
1484;231
1501;233
1484;235
1488;238
1486;240
1483;243
1489;245
1479;247
1495;250
1489;252
1494;254
1501;258
1484;260
1491;262
1488;265
1482;267
1488;269
1493;272
1496;274
1494;277
1483;279
1496;281
1485;284
1495;286
1488;288
1483;291
1485;293
1493;295
1492;299
1483;301
1478;303
1487;306
1477;308
1482;310
1480;313
1495;315
1490;318
1481;320
1480;322
1484;325
1472;327
1493;329
1478;332
1498;334
1493;336
1487;339
1486;342
1475;344
1488;347
1474;349
1483;351
1484;354
1488;356
1490;359
1476;361
1483;363
1488;366
1485;368
1484;370
1479;373
1480;375
1486;377
1472;380
1478;382
1489;385
1480;388
1480;390
1494;392
1479;395
1475;397
1470;400
1473;402
1484;404
1479;407
1485;409
1491;411
1476;414
1486;416
1490;418
1487;421
1484;423
1468;425
1486;429
1477;431
1493;434
1491;436
1482;438
1482;441
1474;443
1476;445
1483;448
1493;450
1482;452
1487;455
1480;457
1488;459
1479;462
1473;464
1473;466
1488;470
1487;472
1480;475
1476;477
1474;479
1476;482
1477;484
1481;486
1492;489
1490;491
1483;493
1481;496
1489;498
1491;500
1479;503
1474;505
1483;507
1493;510
1481;513
1496;516
1487;518
1498;520
1478;523
1482;525
1489;527
1488;530
1495;532
1493;534
1484;537
1486;539
1487;541
1493;544
1485;546
1491;549
1481;551
1499;553
1487;557
1487;559
1485;561
1487;564
1481;566
1492;568
1488;571
1482;573
1494;575
1491;578
1474;580
1480;582
1474;585
1493;587
1494;590
1496;592
1481;594
1485;598
1487;600
1485;602
1471;605
1477;607
1474;609
1490;612
1484;614
1484;616
1488;619
1474;621
1474;623
1463;626
1475;628
1473;631
1452;633
1450;635
1455;638
1445;641
1452;643
1461;646
1452;648
1467;650
1459;653
1462;655
1448;657
1448;660
1432;662
1452;665
1458;667
1448;669
1452;672
1452;674
1455;676
1455;679
1461;681
1454;684
1453;687
1455;689
1463;691
1466;694
1481;696
1471;698
1462;701
1458;703
1452;706
1435;708
1444;710
1451;713
1461;715
1474;717
1456;720
1461;722
1464;724
1455;728
1472;730
1464;732
1474;735
1463;737
1464;739
1453;742
1462;744
1471;747
1479;749
1474;751
1470;754
1488;756
1459;758
1442;761
1447;763
1451;765
1473;769
1474;771
1461;773
1467;776
1481;778
1485;780
1492;783
1478;785
1488;788
1494;790
1483;792
1488;795
1482;797
1481;799
1489;802
1470;804
1453;806
1471;809
1466;812
1484;814
1496;817
1494;819
1486;822
1488;824
1480;826
1480;829
1492;831
1476;833
1472;836
1467;838
1470;840
1468;843
1477;845
1483;847
1483;850
1484;852
1481;855
1487;858
1494;860
1491;863
1508;865
1506;867
1506;870
1496;872
1489;874
1503;877
1497;879
1484;881
1496;884
1490;886
1492;888
1485;891
1493;893
1501;896
1487;899
1490;901
1489;904
1484;906
1481;908
1499;911
1493;913
1495;915
1487;918
1486;920
1491;922
1485;925
1494;927
1494;929
1496;932
1509;934
1491;937
1484;940
1480;942
1495;945
1486;947
1507;949
1494;952
1506;954
1486;956
1486;959
1479;961
1464;963
1476;966
1484;968
1500;970
1485;973
1487;975
1492;978
1489;980
1487;983
1487;986
1487;988
1498;990
1491;993
1508;995
1502;997
1491;1000
1492;1002
1492;1005
1496;1007
1495;1009
1505;1012
1504;1014
1520;1017
1511;1019
1514;1021
1517;1025
1501;1027
1507;1030
1501;1032
1493;1034
1497;1037
1498;1039
1498;1042
1501;1044
1497;1046
1509;1049
1501;1051
1483;1054
1483;1056
1500;1058
1489;1061
1487;1063
1495;1067
1505;1069
1484;1071
1506;1074
1513;1076
1517;1079
1522;1081
1510;1084
1499;1086
1512;1088
1513;1091
1517;1093
1505;1096
1512;1098
1493;1100
1505;1103
1517;1105
1531;1108
1525;1111
1508;1113
1509;1116
1504;1118
1502;1121
1509;1123
1505;1125
1517;1128
1502;1130
1496;1133
1492;1135
1485;1137
1511;1140
1503;1142
1499;1145
1508;1147
1520;1149
1510;1153
1532;1155
1522;1158
1505;1160
1512;1163
1495;1165
1496;1167
1516;1170
1522;1172
1521;1175
1528;1177
1506;1179
1506;1182
1503;1184
1496;1187
1506;1189
1510;1191
1509;1195
1525;1197
1502;1200
1492;1202
1484;1204
1500;1207
1519;1209
1515;1212
1518;1214
1522;1216
1502;1219
1486;1221
1501;1224
1497;1226
1501;1228
1516;1231
1519;1233
1519;1236
1515;1239
1516;1242
1497;1244
1497;1246
1506;1249
1507;1251
1507;1254
1507;1256
1511;1258
1505;1261
1509;1263
1486;1266
1480;1268
1479;1270
1507;1273
1515;1275
1510;1278
1513;1281
1501;1283
1501;1286
1494;1288
1515;1291
1505;1293
1518;1295
1506;1298
1487;1300
1481;1303
1482;1305
1500;1307
1514;1310
1529;1312
1510;1315
1503;1317
1501;1319
1516;1323
1519;1325
1510;1328
1522;1330
1508;1332
1524;1335
1521;1337
1513;1340
1511;1342
1493;1345
1506;1347
1519;1349
1511;1352
1496;1354
1495;1357
1506;1359
1511;1361
1518;1364
1510;1367
1493;1370
1513;1372
1515;1374
1512;1377
1485;1379
1485;1382
1511;1384
1519;1386
1516;1389
1525;1391
1522;1394
1507;1396
1507;1398
1492;1401
1500;1403
1515;1406
1517;1409
1509;1411
1524;1414
1514;1416
1512;1419
1496;1421
1486;1423
1498;1426
1515;1428
1518;1431
1516;1433
1525;1436
1508;1438
1503;1440
1495;1443
1504;1445
1525;1448
1516;1451
1521;1453
1519;1456
1510;1458
1521;1461
1511;1463
1522;1465
1511;1468
1512;1470
1526;1473
1520;1475
1523;1477
1505;1480
1509;1482
1523;1485
1497;1487
1500;1489
1505;1492
1512;1495
1518;1498
1515;1500
1511;1502
1504;1505
1479;1507
1491;1510
1511;1512
1538;1514
1513;1517
1500;1519
1483;1522
1505;1524
1524;1527
1527;1529
1533;1531
1540;1534
1522;1537
1511;1540
1484;1542
1491;1544
1502;1547
1526;1549
1521;1552
1504;1554
1480;1556
1484;1559
1482;1561
1507;1564
1512;1566
1502;1568
1503;1571
1517;1573
1533;1576
1524;1579
1521;1581
1507;1584
1497;1586
1513;1589
1509;1591
1516;1593
1523;1596
1519;1598
1511;1601
1512;1603
1525;1606
1531;1608
1534;1610
1521;1613
1530;1615
1495;1618
1479;1620
1486;1623
1498;1626
1503;1628
1513;1631
1503;1633
1494;1635
1482;1638
1500;1640
1507;1643
1524;1645
1516;1647
1516;1650
1517;1652
1519;1655
1496;1657
1502;1659
1514;1662
1543;1665
1543;1668
1520;1670
1538;1672
1536;1675
1511;1677
1523;1680
1513;1682
1519;1684
1497;1687
1474;1689
1494;1692
1500;1694
1511;1696
1522;1699
1519;1701
1507;1704
1478;1707
1472;1710
1483;1712
1502;1714
1517;1717
1522;1719
1514;1722
1502;1724
1499;1726
1521;1729
1524;1731
1538;1734
1531;1736
1501;1738
1501;1741
1491;1743
1489;1746
1470;1748
1498;1751
1508;1754
1513;1756
1513;1759
1475;1761
1482;1763
1515;1766
1523;1768
1509;1771
1516;1773
1507;1775
1491;1778
1477;1780
1478;1783
1506;1785
1529;1787
1525;1790
1532;1793
1509;1796
1507;1798
1508;1801
1514;1803
1499;1805
1494;1808
1490;1810
1499;1813
1507;1815
1517;1817
1530;1820
1501;1822
1491;1825
1488;1827
1507;1829
1496;1832
1506;1835
1510;1838
1490;1840
1484;1842
1499;1845
1494;1847
1507;1850
1504;1852
1472;1854
1498;1857
1531;1859
1538;1862
1517;1864
1512;1866
1518;1869
1516;1871
1517;1874
1516;1876
1483;1879
1468;1882
1476;1884
1505;1887
1500;1889
1515;1892
1509;1894
1509;1896
1512;1899
1517;1901
1499;1904
1514;1906
1513;1908
1505;1911
1512;1913
1516;1916
1475;1918
1485;1921
1518;1924
1532;1926
1529;1929
1521;1931
1518;1933
1491;1936
1493;1938
1502;1941
1502;1943
1499;1945
1516;1948
1518;1950
1512;1953
1505;1955
1492;1957
1500;1960
1500;1963
1510;1966
1502;1968
1522;1970
1507;1973
1505;1975
1506;1978
1513;1980
1497;1983
1508;1985
1513;1987
1531;1990
1517;1992
1515;1995
1514;1997
1481;1999
1485;2002
1503;2004
1498;2008
1524;2010
1516;2012
1500;2015
1507;2017
1522;2020
1499;2022
1490;2024
1487;2027
1493;2029
1504;2032
1509;2034
1513;2036
1511;2039
1484;2041
1473;2044
1483;2046
1514;2049
1507;2052
1498;2054
1492;2057
1503;2059
1522;2061
1511;2064
1503;2066
1510;2069
1510;2071
1514;2074
1498;2076
1514;2078
1513;2081
1485;2083
1486;2086
1486;2088
1517;2091
1479;2094
1469;2096
1479;2099
1509;2101
1502;2103
1515;2106
1494;2108
1477;2111
1478;2113
1503;2115
1524;2118
1520;2120
1520;2123
1511;2125
1485;2127
1505;2130
1498;2132
1476;2136
1476;2138
1480;2140
1460;2143
1465;2145
1494;2148
1503;2150
1511;2153
1509;2155
1488;2157
1494;2160
1476;2162
1465;2165
1473;2167
1483;2169
1479;2172
1492;2174
1503;2178
1499;2180
1480;2182
1496;2185
1488;2187
1498;2190
1506;2192
1499;2194
1481;2197
1466;2199
1476;2202
1466;2204
1475;2206
1490;2209
1479;2211
1483;2214
1471;2216
1458;2219
1479;2222
1498;2224
1503;2227
1498;2229
1467;2232
1461;2234
1466;2236
1489;2239
1484;2241
1496;2244
1475;2246
1478;2248
1487;2251
1505;2253
1505;2256
1486;2258
1459;2260
1440;2264
1438;2266
1490;2269
1506;2271
1488;2273
1482;2276
1489;2278
1476;2281
1485;2283
1473;2285
1467;2288
1481;2290
1466;2293
1458;2295
1471;2297
1480;2300
1487;2302
1483;2306
1479;2308
1464;2310
1458;2313
1480;2315
1480;2318
1490;2320
1482;2323
1496;2325
1482;2327
1469;2330
1478;2332
1477;2335
1485;2337
1477;2339
1481;2342
1469;2344
1475;2348
1480;2350
1481;2352
1484;2355
1485;2357
1467;2360
1463;2362
1467;2364
1482;2367
1504;2369
1484;2372
1443;2374
1446;2376
1480;2379
1482;2381
1476;2384
1478;2386
1470;2388
1443;2392
1443;2394
1464;2397
1478;2399
1481;2401
1469;2404
1480;2406
1478;2409
1468;2411
1480;2414
1485;2416
1495;2418
1495;2421
1480;2423
1468;2426
1498;2428
1489;2430
1468;2434
1451;2436
1419;2439
1435;2441
1472;2443
1467;2446
1477;2448
1497;2451
1492;2453
1468;2455
1472;2458
1466;2460
1445;2463
1441;2465
1482;2467
1495;2470
1493;2472
1462;2476
1461;2478
1478;2480
1484;2483
1476;2485
1471;2488
1476;2490
1470;2492
1459;2495
1459;2497
1449;2500
1460;2502
1471;2505
1489;2507
1468;2509
1455;2512
1485;2514
1485;2518
1480;2520
1472;2522
1474;2525
1459;2527
1436;2530
1449;2532
1493;2534
1481;2537
1459;2539
1463;2542
1473;2544
1495;2546
1475;2549
1477;2551
1477;2554
1441;2556
1453;2558
1472;2562
1466;2564
1443;2567
1474;2569
1493;2571
1480;2574
1486;2576
1489;2579
1500;2581
1461;2583
1425;2586
1446;2588
1470;2591
1468;2593
1465;2596
1468;2598
1482;2600
1486;2604
1487;2606
1477;2609
1440;2611
1445;2613
1484;2616
1486;2618
1485;2621
1473;2623
1486;2625
1480;2628
1491;2630
1482;2633
1459;2635
1436;2637
1478;2640
1511;2642
1492;2646
1475;2648
1486;2650
1477;2653
1481;2655
1474;2658
1470;2660
1482;2662
1455;2665
1440;2667
1474;2670
1481;2672
1487;2674
1486;2677
1474;2679
1473;2682
1457;2684
1420;2686
1433;2690
1494;2692
1517;2695
1494;2697
1495;2700
1496;2702
1483;2704
1480;2707
1482;2709
1472;2712
1488;2714
1429;2716
1438;2719
1478;2721
1495;2724
1476;2726
1465;2728
1473;2732
1501;2734
1503;2737
1487;2739
1438;2741
1451;2744
1470;2746
1488;2749
1482;2751
1488;2753
1515;2756
1490;2758
1468;2761
1460;2763
1480;2765
1502;2768
1499;2770
1505;2774
1500;2776
1499;2778
1461;2781
1432;2783
1459;2786
1494;2788
1510;2790
1473;2793
1480;2795
1495;2798
1491;2800
1474;2803
1477;2805
1492;2807
1473;2810
1470;2812
1501;2816
1497;2818
1493;2820
1491;2823
1493;2825
1478;2828
1477;2830
1510;2832
1498;2835
1489;2837
1469;2840
1479;2842
1482;2844
1493;2847
1496;2849
1506;2852
1506;2854
1493;2856
1494;2860
1464;2862
1463;2865
1458;2867
1445;2869
1509;2872
1504;2874
1496;2877
1477;2879
1478;2881
1434;2884
1469;2886
1486;2889
1509;2891
1482;2894
1491;2896
1497;2898
1490;2902
1480;2904
1504;2907
1513;2909
1527;2911
1508;2914
1486;2916
1469;2919
1455;2921
1473;2923
1487;2926
1486;2928
1483;2931
1514;2933
1499;2935
1465;2938
1473;2940
1469;2944
1487;2946
1499;2948
1496;2951
1490;2953
1474;2956
1477;2958
1472;2960
1457;2963
1475;2965
1497;2968
1501;2970
1518;2972
1528;2975
1516;2977
1509;2980
1485;2982
1466;2985
1479;2988
1471;2990
1473;2993
1481;2995
1499;2998
1487;3000
1473;3002
1473;3005
1480;3007
1478;3010
1484;3012
1504;3014
1501;3017
1453;3019
1464;3022
1454;3024
1467;3026
1494;3030
1494;3032
1513;3035
1453;3037
1450;3039
1473;3042
1469;3044
1480;3047
1503;3049
1524;3051
1526;3054
1525;3056
1480;3059
1466;3061
1500;3064
1502;3066
1481;3068
1438;3072
1502;3074
1524;3077
1500;3079
1484;3081
1494;3084
1473;3086
1472;3089
1503;3091
1491;3093
1476;3096
1479;3098
1484;3101
1446;3103
1477;3105
1507;3108
1505;3110
1524;3113
1477;3116
1465;3118
1472;3121
1465;3123
1460;3126
1481;3128
1497;3130
1511;3133
1526;3135
1506;3138
1480;3140
1463;3143
1460;3145
1427;3147
1476;3150
1513;3152
1511;3155
1509;3158
1515;3160
1493;3163
1470;3165
1435;3168
1453;3170
1489;3172
1502;3175
1518;3177
1518;3180
1512;3182
1503;3184
1491;3187
1495;3189
1500;3192
1431;3194
1439;3196
1488;3200
1491;3202
1506;3205
1506;3207
1499;3210
1466;3212
1429;3214
1435;3217
1496;3219
1484;3222
1501;3224
1488;3226
1506;3229
1495;3231
1457;3234
1447;3236
1467;3238
1467;3241
1473;3244
1480;3247
1508;3249
1520;3251
1494;3254
1471;3256
1465;3259
1474;3261
1486;3263
1493;3266
1494;3268
1492;3271
1453;3273
1431;3275
1424;3278
1451;3280
1485;3283
1472;3286
1468;3288
1455;3291
1453;3293
1464;3296
1454;3298
1432;3300
1450;3303
1477;3305
1487;3308
1484;3310
1474;3313
1466;3315
1448;3317
1454;3320
1472;3322
1444;3325
1461;3328
1467;3330
1480;3333
1491;3335
1492;3338
1481;3340
1433;3342
1433;3345
1476;3347
1491;3350
1497;3352
1488;3354
1421;3357
1416;3359
1406;3362
1431;3364
1465;3366
1488;3369
1481;3372
1474;3375
1413;3377
1425;3379
1465;3382
1495;3384
1498;3387
1485;3389
1481;3391
1439;3394
1469;3396
1482;3399
1483;3401
1490;3403
1454;3406
1451;3408
1470;3411
1493;3414
1497;3417
1487;3419
1489;3421
1429;3424
1422;3426
1456;3429
1457;3431
1469;3433
1501;3436
1470;3438
1422;3441
1404;3443
1461;3445
1517;3448
1503;3450
1514;3453
1490;3456
1443;3458
1451;3461
1470;3463
1457;3466
1495;3468
1520;3470
1541;3473
1524;3475
1491;3478
1472;3480
1492;3482
1484;3485
1490;3487
1509;3490
1448;3492
1461;3494
1500;3497
1492;3500
1490;3503
1491;3505
1495;3508
1485;3510
1506;3512
1537;3515
1488;3517
1460;3520
1494;3522
1515;3524
1477;3527
1447;3529
1466;3532
1483;3534
1500;3536
1508;3539
1520;3542
1513;3545
1504;3547
1492;3549
1483;3552
1512;3554
1500;3557
1476;3559
1442;3561
1461;3564
1440;3566
1483;3569
1497;3571
1511;3573
1512;3576
1503;3578
1513;3581
1492;3584
1468;3587
1462;3589
1452;3591
1478;3594
1469;3596
1476;3599
1487;3601
1478;3603
1511;3606
1516;3608
1515;3611
1487;3613
1424;3615
1440;3618
1495;3620
1507;3623
1518;3625
1517;3628
1500;3631
1508;3633
1501;3636
1465;3638
1481;3640
1494;3643
1478;3645
1447;3648
1469;3650
1514;3652
1517;3655
1510;3657
1506;3660
1490;3662
1471;3664
1493;3667
1504;3670
1451;3673
1472;3675
1502;3678
1510;3680
1511;3682
1532;3685
1531;3687
1531;3690
1501;3692
1504;3694
1499;3697
1495;3699
1492;3702
1514;3704
1497;3706
1507;3709
1490;3712
1491;3715
1459;3717
1473;3719
1516;3722
1517;3724
1525;3727
1475;3729
1451;3731
1466;3734
1493;3736
1478;3739
1490;3741
1536;3744
1548;3746
1519;3748
1500;3751
1523;3753
1530;3757
1521;3759
1543;3761
1543;3764
1498;3766
1481;3769
1503;3771
1522;3773
1495;3776
1484;3778
1501;3781
1504;3783
1496;3785
1521;3788
1525;3790
1502;3793
1494;3795
1474;3798
1474;3801
1465;3803
1516;3806
1480;3808
1503;3810
1514;3813
1519;3815
1532;3818
1507;3820
1511;3823
1526;3825
1515;3827
1536;3830
1523;3832
1522;3835
1528;3837
1543;3840
1533;3843
1519;3845
1497;3848
1468;3850
1481;3852
1498;3855
1494;3857
1488;3860
1476;3862
1470;3864
1513;3867
1524;3869
1511;3872
1514;3874
1502;3876
1496;3879
1495;3881
1437;3885
1457;3887
1503;3889
1528;3892
1535;3894
1529;3897
1496;3899
1497;3902
1517;3904
1519;3906
1517;3909
1502;3911
1504;3914
1520;3916
1512;3918
1530;3921
1502;3923
1441;3927
1465;3929
1505;3931
1514;3934
1510;3936
1529;3939
1498;3941
1486;3943
1511;3946
1522;3948
1502;3951
1476;3953
1476;3955
1469;3958
1466;3960
1486;3963
1516;3965
1520;3969
1517;3971
1537;3973
1508;3976
1517;3978
1518;3981
1499;3983
1488;3985
1503;3988
1533;3990
1536;3993
1523;3995
1485;3997
1475;4000
1519;4002
1526;4005
1516;4007
1518;4009
1520;4013
1519;4015
1516;4018
1510;4020
1470;4022
1479;4025
1476;4027
1470;4030
1496;4032
1494;4034
1478;4037
1516;4039
1519;4042
1500;4044
1491;4046
1516;4049
1528;4051
1505;4055
1471;4057
1494;4060
1500;4062
1497;4064
1502;4067
1510;4069
1530;4072
1498;4074
1453;4076
1485;4079
1465;4081
1490;4084
1537;4086
1549;4088
1535;4091
1539;4093
1509;4097
1511;4099
1512;4101
1505;4104
1517;4106
1511;4109
1532;4111
1516;4113
1488;4116
1450;4118
1464;4121
1497;4123
1518;4125
1532;4128
1524;4130
1503;4133
1487;4135
1498;4137
1491;4141
1501;4143
1474;4146
1447;4148
1499;4151
1538;4153
1534;4155
1528;4158
1523;4160
1489;4163
1492;4165
1505;4167
1526;4170
1535;4172
1537;4175
1528;4177
1521;4179
1480;4183
1462;4185
1480;4188
1516;4190
1511;4192
1487;4195
1481;4197
1512;4200
1508;4202
1490;4204
1490;4207
1486;4209
1521;4212
1516;4214
1514;4216
1501;4219
1493;4221
1504;4225
1511;4227
1524;4229
1513;4232
1512;4234
1510;4237
1497;4239
1471;4242
1475;4244
1500;4246
1511;4249
1526;4251
1499;4254
1466;4256
1490;4258
1526;4261
1494;4263
1503;4267
1493;4269
1499;4271
1482;4274
1493;4276
1507;4279
1501;4281
1477;4283
1459;4286
1440;4288
1477;4291
1507;4293
1469;4295
1469;4298
1505;4300
1519;4303
1511;4305
1529;4307
1526;4311
1513;4313
1525;4316
1520;4318
1497;4320
1496;4323
1481;4325
1511;4328
1513;4330
1530;4333
1525;4335
1514;4337
1490;4340
1497;4342
1503;4345
1500;4347
1496;4349
1484;4353
1479;4355
1473;4358
1480;4360
1449;4362
1437;4365
1449;4367
1450;4370
1482;4372
1507;4374
1491;4377
1489;4379
1509;4382
1503;4384
1475;4386
1482;4389
1474;4391
1489;4395
1498;4397
1490;4399
1490;4402
1507;4404
1510;4407
1519;4409
1524;4412
1518;4414
1515;4416
1512;4419
1484;4421
1486;4424
1502;4426
1503;4428
1495;4431
1519;4433
1523;4436
1514;4439
1488;4441
1483;4444
1478;4446
1460;4449
1390;4451
1387;4453
1460;4456
1506;4458
1509;4461
1508;4463
1488;4465
1487;4468
1481;4470
1476;4473
1493;4475
1509;4478
1484;4481
1462;4483
1465;4486
1499;4488
1502;4491
1496;4493
1511;4495
1496;4498
1500;4500
1478;4503
1459;4505
1473;4507
1485;4510
1485;4512
1449;4515
1468;4517
1501;4519
1500;4523
1500;4525
1488;4528
1472;4530
1475;4532
1489;4535
1465;4537
1464;4540
1493;4542
1488;4544
1486;4547
1492;4549
1479;4552
1483;4554
1501;4556
1482;4559
1481;4561
1477;4564
1471;4567
1481;4570
1473;4572
1485;4574
1483;4577
1473;4579
1460;4582
1458;4584
1457;4586
1489;4589
1495;4591
1488;4594
1477;4596
1489;4598
1490;4601
1499;4603
1486;4606
1491;4609
1473;4611
1480;4614
1486;4616
1501;4619
1492;4621
1481;4623
1463;4626
1476;4628
1490;4631
1490;4633
1473;4636
1469;4638
1458;4640
1453;4643
1465;4645
1463;4648
1482;4651
1469;4653
1463;4656
1465;4658
1481;4661
1490;4663
1497;4665
1498;4668
1483;4670
1473;4673
1496;4675
1501;4677
1496;4680
1475;4682
1484;4685
1498;4687
1483;4689
1497;4692
1490;4695
1482;4698
1483;4700
1488;4702
1476;4705
1477;4707
1485;4710
1483;4712
1432;4715
1472;4717
1455;4719
1459;4722
1492;4724
1494;4727
1510;4729
1507;4731
1519;4734
1495;4737
1501;4740
1500;4742
1504;4744
1509;4747
1509;4749
1502;4752
1494;4754
1493;4756
1511;4759
1514;4761
1501;4764
1507;4766
1498;4768
1500;4771
1484;4773
1483;4776
1491;4779
1501;4781
1514;4784
1499;4786
1507;4789
1469;4791
1448;4794
1479;4796
1505;4798
1487;4801
1491;4803
1472;4806
1487;4808
1494;4810
1472;4813
1490;4815
1495;4818
1507;4820
1519;4823
1493;4826
1482;4828
1475;4831
1440;4833
1472;4835
1495;4838
1518;4840
1502;4843
1495;4845
1495;4847
1494;4850
1509;4852
1491;4855
1487;4857
1509;4859
1524;4862
1516;4865
1515;4868
1485;4870
1484;4873
1467;4875
1494;4877
1512;4880
1522;4882
1507;4885
1520;4887
1520;4889
1526;4892
1517;4894
1520;4897
1494;4899
1485;4901
1493;4904
1500;4907
1519;4910
1487;4912
1478;4914
1496;4917
1502;4919
1490;4922
1503;4924
1526;4926
1531;4929
1511;4931
1502;4934
1500;4936
1487;4938
1504;4941
1518;4943
1509;4946
1525;4948
1526;4952
1525;4954
1508;4956
1470;4959
1492;4961
1509;4964
1505;4966
1499;4968
1507;4971
1503;4973
1504;4976
1487;4978
1488;4980
1498;4983
1511;4985
1497;4988
1512;4990
1498;4993
1492;4996
1480;4998
1494;5001
