mV;time
0;0
1465;2
1462;4
1452;7
1448;9
1448;11
1447;13
1447;16
1449;18
1448;20
1443;23
1439;25
1437;27
1434;30
1432;32
1431;34
1436;36
1441;39
1442;41
1433;44
1427;47
1428;49
1438;51
1443;54
1446;56
1451;58
1456;61
1457;63
1458;65
1458;67
1461;70
1466;72
1475;74
1487;77
1489;79
1488;81
1491;84
1495;87
1495;89
1495;91
1496;94
1499;96
1506;98
1515;101
1519;103
1518;105
1518;108
1519;110
1519;112
1517;115
1511;117
1510;120
1513;122
1519;124
1517;128
1522;130
1527;132
1531;135
1536;137
1537;139
1538;142
1534;144
1531;146
1530;149
1530;151
1522;153
1529;156
1534;158
1538;161
1545;163
1545;165
1542;168
1529;171
1527;173
1533;176
1532;178
1535;180
1536;183
1533;185
1530;187
1538;190
1549;192
1547;194
1536;197
1533;199
1544;202
1548;204
1549;206
1549;209
1544;211
1537;214
1543;217
1551;219
1549;221
1552;224
1552;226
1554;228
1552;231
1541;233
1532;236
1543;238
1560;240
1560;243
1555;245
1552;247
1553;250
1558;252
1551;254
1550;258
1554;260
1555;262
1551;265
1550;267
1543;269
1548;272
1559;274
1560;277
1542;279
1533;281
1538;284
1544;286
1537;288
1535;291
1536;293
1551;295
1572;299
1566;301
1552;303
1554;306
1556;308
1557;311
1569;313
1582;315
1585;318
1547;320
1510;322
1509;325
1541;327
1562;329
1566;332
1570;334
1579;336
1581;339
1578;342
1552;344
1560;347
1581;349
1596;352
1597;354
1594;356
1591;359
1564;361
1561;363
1565;366
1570;368
1581;370
1593;373
1593;375
1593;377
1602;380
1603;382
1604;385
1592;388
1580;390
1561;393
1538;395
1546;397
1569;400
1581;402
1585;404
1571;407
1559;409
1568;411
1583;414
1589;416
1591;418
1550;421
1548;423
1572;427
1587;429
1584;431
1593;434
1602;436
1602;438
1590;441
1566;443
1571;445
1580;448
1586;450
1580;452
1535;455
1560;457
1577;459
1585;462
1587;464
1582;467
1588;470
1590;472
1598;475
1598;477
1598;479
1601;482
1545;484
1529;486
1554;489
1585;491
1593;493
1597;496
1605;498
1602;500
1600;503
1602;505
1600;508
1597;510
1597;513
1588;516
1542;518
1553;520
1551;523
1568;525
1590;527
1604;530
1598;532
1582;534
1581;537
1598;539
1598;542
1592;544
1595;546
1589;549
1565;551
1575;553
1595;557
1557;559
1555;561
1569;564
1580;566
1579;568
1589;571
1588;573
1592;575
1597;578
1600;580
1568;583
1542;585
1553;587
1570;590
1553;592
1573;594
1585;598
1583;600
1584;602
1592;605
1559;607
1541;609
1553;612
1584;614
1601;617
1608;619
1586;621
1580;624
1576;626
1550;628
1520;631
1546;633
1580;635
1586;638
1573;641
1580;643
1588;646
1590;648
1583;650
1566;653
1561;655
1579;658
1593;660
1560;662
1534;665
1555;667
1579;669
1587;672
1582;674
1573;676
1572;679
1562;681
1546;684
1540;687
1559;689
1578;692
1575;694
1562;696
1572;699
1586;701
1590;703
1565;706
1537;708
1532;710
1546;713
1567;715
1579;717
1584;720
1584;722
1575;724
1558;728
1565;730
1553;733
1533;735
1538;737
1566;740
1570;742
1570;744
1581;747
1576;749
1572;751
1565;754
1556;756
1557;758
1554;761
1547;763
1552;766
1550;769
1534;771
1542;774
1549;776
1565;778
1570;781
1564;783
1549;785
1544;788
1547;790
1543;792
1510;795
1512;797
1536;800
1547;802
1534;804
1525;807
1534;809
1544;812
1543;815
1534;817
1538;819
1541;822
1534;824
1520;826
1519;829
1534;831
1540;833
1531;836
1540;838
1509;841
1514;843
1530;845
1533;848
1533;850
1514;852
1518;856
1543;858
1554;860
1541;863
1528;865
1523;867
1511;870
1528;872
1529;875
1512;877
1516;879
1536;882
1527;884
1523;886
1531;889
1524;891
1527;893
1531;897
1532;899
1527;901
1517;904
1510;906
1531;908
1547;911
1528;913
1518;916
1524;918
1531;920
1537;923
1532;925
1527;927
1520;930
1523;932
1524;934
1528;937
1537;940
1548;942
1552;945
1512;947
1496;950
1519;952
1532;954
1534;957
1517;959
1518;961
1534;964
1541;966
1540;968
1533;971
1540;973
1548;975
1555;978
1554;980
1554;983
1554;986
1548;988
1548;991
1509;993
1498;995
1528;998
1543;1000
1544;1002
1550;1005
1546;1007
1548;1010
1550;1012
1547;1014
1557;1017
1554;1019
1522;1022
1513;1025
1530;1027
1536;1030
1520;1032
1497;1035
1520;1037
1541;1039
1548;1042
1548;1044
1543;1047
1545;1049
1551;1051
1532;1054
1528;1056
1543;1059
1549;1061
1520;1063
1525;1067
1552;1069
1553;1072
1556;1074
1567;1077
1564;1079
1567;1081
1561;1084
1550;1086
1537;1089
1533;1091
1532;1093
1533;1096
1530;1098
1520;1101
1488;1103
1518;1105
1558;1108
1561;1111
1550;1114
1552;1116
1559;1118
1561;1121
1548;1123
1546;1126
1549;1128
1552;1130
1557;1133
1544;1135
1535;1138
1542;1140
1552;1142
1555;1145
1557;1147
1534;1150
1526;1153
1541;1155
1553;1158
1550;1160
1533;1163
1539;1165
1551;1168
1553;1170
1552;1172
1558;1175
1564;1177
1569;1180
1563;1182
1557;1184
1555;1187
1554;1189
1536;1192
1538;1195
1549;1197
1542;1200
1513;1202
1521;1205
1540;1207
1545;1209
1543;1212
1546;1214
1553;1217
1562;1219
1537;1221
1525;1224
1536;1226
1547;1229
1554;1231
1543;1233
1544;1236
1551;1239
1542;1242
1538;1244
1521;1247
1515;1249
1541;1251
1562;1254
1562;1256
1565;1259
1572;1261
1565;1263
1550;1266
1536;1268
1536;1271
1551;1273
1545;1275
1549;1278
1548;1281
1538;1284
1543;1286
1529;1288
1527;1291
1547;1293
1553;1296
1549;1298
1552;1300
1540;1303
1517;1305
1529;1308
1547;1310
1549;1312
1556;1315
1552;1317
1548;1320
1548;1323
1545;1325
1533;1328
1541;1330
1549;1333
1552;1335
1551;1338
1543;1340
1528;1342
1529;1345
1538;1347
1519;1350
1514;1352
1534;1354
1548;1357
1553;1359
1524;1362
1522;1364
1531;1367
1535;1370
1538;1372
1545;1375
1549;1377
1543;1379
1545;1382
1533;1384
1529;1387
1515;1389
1509;1391
1509;1394
1508;1396
1530;1399
1543;1401
1540;1403
1545;1406
1533;1409
1530;1412
1536;1414
1541;1416
1523;1419
1517;1421
1519;1424
1519;1426
1518;1429
1521;1431
1520;1433
1531;1436
1546;1438
1542;1441
1534;1443
1522;1445
1509;1448
1519;1451
1522;1454
1518;1456
1526;1458
1538;1461
1546;1463
1540;1466
1532;1468
1529;1470
1531;1473
1521;1475
1524;1478
1530;1480
1529;1482
1520;1485
1501;1487
1499;1490
1520;1492
1529;1495
1534;1498
1538;1500
1534;1503
1534;1505
1527;1507
1526;1510
1531;1512
1532;1515
1527;1517
1517;1520
1508;1522
1518;1524
1525;1527
1519;1529
1527;1532
1532;1534
1527;1537
1502;1540
1489;1542
1507;1545
1521;1547
1522;1549
1513;1552
1509;1554
1515;1557
1523;1559
1520;1561
1515;1564
1518;1566
1519;1569
1518;1571
1520;1573
1519;1576
1520;1579
1517;1582
1511;1584
1509;1586
1504;1589
1498;1591
1504;1594
1509;1596
1517;1599
1522;1601
1508;1603
1499;1606
1485;1608
1494;1611
1517;1613
1530;1615
1529;1618
1527;1620
1516;1624
1505;1626
1513;1628
1521;1631
1526;1633
1528;1636
1518;1638
1511;1640
1522;1643
1530;1645
1526;1648
1524;1650
1527;1652
1531;1655
1536;1657
1532;1660
1526;1662
1519;1665
1512;1668
1503;1670
1496;1673
1507;1675
1525;1677
1533;1680
1514;1682
1510;1685
1514;1687
1519;1689
1519;1692
1516;1694
1515;1697
1514;1699
1520;1702
1519;1704
1517;1707
1515;1710
1486;1712
1491;1715
1510;1717
1505;1719
1497;1722
1501;1724
1509;1727
1506;1729
1505;1731
1512;1734
1523;1736
1522;1739
1519;1741
1519;1743
1518;1746
1516;1748
1506;1752
1497;1754
1497;1756
1506;1759
1514;1761
1514;1764
1515;1766
1504;1768
1512;1771
1520;1773
1520;1776
1520;1778
1519;1780
1512;1783
1506;1785
1497;1788
1488;1790
1488;1794
1503;1796
1513;1798
1515;1801
1514;1803
1518;1806
1513;1808
1508;1810
1509;1813
1513;1815
1508;1818
1508;1820
1511;1822
1509;1825
1502;1827
1509;1830
1512;1832
1508;1835
1513;1838
1501;1840
1490;1843
1484;1845
1474;1847
1484;1850
1496;1852
1518;1855
1532;1857
1530;1859
1518;1862
1502;1864
1499;1867
1504;1869
1512;1872
1515;1874
1506;1876
1511;1880
1516;1882
1513;1885
1513;1887
1517;1889
1519;1892
1522;1894
1501;1897
1497;1899
1513;1901
1517;1904
1512;1906
1513;1909
1516;1911
1517;1913
1498;1916
1491;1918
1503;1922
1513;1924
1493;1926
1491;1929
1511;1931
1521;1934
1527;1936
1534;1938
1531;1941
1529;1943
1518;1946
1516;1948
1524;1951
1521;1953
1521;1955
1525;1958
1515;1960
1510;1964
1512;1966
1493;1968
1503;1971
1522;1973
1525;1976
1522;1978
1520;1980
1521;1983
1526;1985
1525;1988
1521;1990
1521;1992
1523;1995
1527;1997
1523;2000
1522;2002
1524;2004
1504;2008
1465;2010
1485;2013
1515;2015
1527;2017
1523;2020
1522;2022
1524;2025
1518;2027
1520;2029
1524;2032
1523;2034
1521;2037
1524;2039
1532;2042
1504;2044
1502;2046
1511;2050
1522;2052
1522;2055
1517;2057
1513;2059
1512;2062
1512;2064
1510;2067
1511;2069
1512;2071
1509;2074
1503;2076
1496;2079
1501;2081
1496;2083
1463;2086
1450;2088
1476;2092
1495;2094
1501;2096
1504;2099
1496;2101
1486;2104
1483;2106
1481;2108
1484;2111
1486;2113
1488;2116
1463;2118
1456;2120
1472;2123
1475;2125
1475;2128
1465;2130
1473;2134
1481;2136
1479;2138
1477;2141
1473;2143
1470;2146
1469;2148
1461;2150
1456;2153
1463;2155
1466;2158
1457;2160
1450;2162
1451;2165
1453;2167
1453;2170
1447;2172
1454;2174
1460;2178
1463;2180
1439;2183
1396;2185
1394;2187
1434;2190
1451;2192
1457;2195
1460;2197
1460;2199
1453;2202
1450;2204
1448;2207
1448;2209
1433;2211
1434;2214
1451;2216
1461;2220
1458;2222
1461;2225
1451;2227
1442;2229
1444;2232
1445;2234
1445;2237
1449;2239
1451;2241
1411;2244
1404;2246
1437;2249
1458;2251
1463;2253
1466;2256
1458;2258
1440;2262
1443;2264
1453;2266
1454;2269
1458;2271
1466;2274
1468;2276
1474;2278
1461;2281
1451;2283
1449;2286
1455;2288
1462;2290
1472;2293
1476;2295
1475;2298
1473;2300
1468;2302
1461;2306
1457;2308
1459;2311
1461;2313
1460;2316
1467;2318
1475;2320
1478;2323
1476;2325
1471;2328
1416;2330
1423;2332
1456;2335
1477;2337
1483;2340
1472;2342
1472;2344
1482;2348
1488;2350
1493;2353
1497;2355
1496;2357
1483;2360
1483;2362
1487;2365
1494;2367
1486;2369
1488;2372
1496;2374
1475;2377
1480;2379
1495;2381
1503;2384
1507;2386
1507;2390
1505;2392
1511;2394
1500;2397
1498;2399
1499;2402
1490;2404
1491;2407
1495;2409
1495;2411
1501;2414
1511;2416
1519;2419
1516;2421
1513;2423
1492;2426
1465;2428
1481;2432
1501;2434
1497;2436
1498;2439
1516;2441
1531;2444
1526;2446
1513;2448
1516;2451
1531;2453
1537;2456
1535;2458
1529;2460
1512;2463
1508;2465
1508;2468
1488;2470
1482;2472
1515;2476
1536;2478
1539;2481
1539;2483
1536;2485
1531;2488
1519;2490
1497;2493
1501;2495
1522;2498
1535;2500
1536;2502
1527;2505
1522;2507
1522;2510
1529;2512
1530;2514
1526;2518
1513;2520
1516;2523
1526;2525
1526;2527
1519;2530
1520;2532
1525;2535
1518;2537
1517;2539
1524;2542
1535;2544
1531;2547
1527;2549
1526;2551
1521;2554
1496;2556
1496;2560
1495;2562
1503;2564
1518;2567
1525;2569
1531;2572
1540;2574
1544;2577
1543;2579
1529;2581
1533;2584
1543;2586
1536;2589
1532;2591
1523;2593
1528;2596
1539;2598
1532;2601
1520;2604
1526;2606
1520;2609
1509;2611
1525;2614
1541;2616
1545;2618
1536;2621
1549;2623
1554;2626
1551;2628
1530;2630
1522;2633
1528;2635
1537;2638
1545;2640
1547;2642
1546;2646
1542;2648
1551;2651
1524;2653
1514;2655
1542;2658
1538;2660
1530;2663
1538;2665
1541;2667
1534;2670
1533;2672
1546;2675
1552;2677
1549;2680
1548;2682
1544;2684
1525;2688
1516;2690
1534;2693
1540;2695
1518;2697
1517;2700
1542;2702
1546;2705
1545;2707
1548;2709
1551;2712
1555;2714
1561;2717
1566;2719
1535;2721
1510;2724
1511;2726
1497;2729
1516;2732
1546;2734
1558;2737
1564;2739
1533;2742
1524;2744
1538;2746
1543;2749
1549;2751
1563;2754
1565;2756
1548;2758
1539;2761
1498;2763
1476;2766
1503;2768
1540;2771
1542;2774
1535;2776
1551;2779
1558;2781
1544;2784
1535;2786
1542;2788
1543;2791
1542;2793
1543;2796
1503;2798
1484;2800
1506;2803
1527;2805
1536;2808
1541;2810
1535;2812
1534;2816
1546;2818
1548;2821
1539;2823
1538;2825
1529;2828
1509;2830
1510;2833
1523;2835
1522;2837
1524;2840
1512;2842
1482;2845
1477;2847
1505;2850
1522;2852
1521;2854
1527;2857
1525;2860
1525;2863
1521;2865
1511;2867
1469;2870
1470;2872
1501;2875
1494;2877
1501;2879
1505;2882
1508;2884
1518;2887
1526;2889
1527;2891
1511;2894
1494;2896
1481;2899
1487;2902
1488;2904
1477;2907
1484;2909
1515;2912
1527;2914
1523;2916
1518;2919
1516;2921
1508;2924
1514;2926
1516;2928
1506;2931
1486;2933
1483;2936
1495;2938
1491;2940
1480;2944
1475;2946
1489;2949
1513;2951
1519;2954
1513;2956
1507;2958
1503;2961
1501;2963
1504;2966
1504;2968
1480;2970
1463;2973
1477;2975
1503;2978
1503;2980
1477;2982
1480;2985
1500;2988
1498;2991
1503;2993
1510;2995
1506;2998
1501;3000
1509;3003
1507;3005
1509;3007
1473;3010
1456;3012
1471;3015
1475;3017
1489;3019
1498;3022
1503;3024
1483;3027
1486;3030
1491;3033
1494;3035
1483;3037
1472;3040
1469;3042
1471;3045
1476;3047
1473;3049
1469;3052
1437;3054
1439;3057
1454;3059
1457;3061
1451;3064
1440;3066
1452;3069
1467;3072
1463;3074
1457;3077
1454;3079
1442;3082
1442;3084
1454;3086
1419;3089
1402;3091
1417;3094
1427;3096
1423;3098
1435;3101
1443;3103
1439;3106
1429;3108
1425;3111
1429;3113
1440;3116
1442;3119
1434;3121
1421;3124
1423;3126
1415;3128
1412;3131
1410;3133
1424;3136
1435;3138
1424;3140
1415;3143
1416;3145
1415;3148
1404;3150
1394;3152
1403;3155
1419;3158
1430;3161
1426;3163
1426;3165
1425;3168
1412;3170
1416;3173
1408;3175
1406;3178
1405;3180
1419;3182
1424;3185
1422;3187
1417;3190
1421;3192
1434;3194
1425;3197
1422;3200
1436;3203
1443;3205
1426;3207
1385;3210
1396;3212
1426;3215
1433;3217
1438;3219
1440;3222
1443;3224
1440;3227
1437;3229
1440;3231
1444;3234
1442;3236
1426;3239
1374;3241
1378;3244
1414;3247
1439;3249
1448;3252
1435;3254
1426;3256
1433;3259
1441;3261
1440;3264
1435;3266
1428;3268
1433;3271
1437;3273
1441;3276
1411;3278
1408;3281
1400;3283
1406;3286
1420;3289
1433;3291
1449;3294
1444;3296
1433;3298
1441;3301
1438;3303
1434;3306
1423;3308
1431;3310
1422;3313
1408;3315
1414;3318
1431;3320
1437;3322
1407;3325
1384;3328
1401;3331
1426;3333
1438;3335
1430;3338
1426;3340
1439;3343
1438;3345
1439;3347
1448;3350
1422;3352
1411;3355
1406;3357
1417;3359
1442;3362
1456;3364
1451;3367
1449;3369
1461;3373
1466;3375
1461;3377
1460;3380
1427;3382
1420;3385
1424;3387
1440;3389
1452;3392
1446;3394
1418;3397
1421;3399
1432;3401
1441;3404
1448;3406
1446;3409
1446;3411
1446;3414
1436;3417
1434;3419
1418;3422
1406;3424
1425;3426
1432;3429
1417;3431
1421;3434
1437;3436
1420;3438
1419;3441
1427;3443
1427;3446
1426;3448
1431;3450
1437;3453
1441;3456
1449;3459
1454;3461
1440;3463
1419;3466
1426;3468
1445;3471
1449;3473
1454;3476
1457;3478
1459;3480
1456;3483
1457;3485
1456;3488
1457;3490
1461;3492
1464;3495
1457;3497
1456;3501
1463;3503
1424;3505
1427;3508
1442;3510
1465;3513
1478;3515
1488;3517
1489;3520
1487;3522
1487;3525
1484;3527
1484;3529
1483;3532
1480;3534
1483;3537
1480;3539
1469;3542
1465;3545
1476;3547
1486;3550
1492;3552
1486;3554
1491;3557
1504;3559
1474;3562
1464;3564
1480;3567
1500;3569
1518;3571
1506;3574
1510;3576
1518;3579
1520;3581
1522;3584
1526;3587
1506;3589
1491;3592
1514;3594
1538;3596
1542;3599
1544;3601
1544;3604
1540;3606
1532;3608
1525;3611
1526;3613
1533;3616
1542;3618
1544;3620
1542;3623
1517;3625
1501;3629
1516;3631
1528;3634
1533;3636
1530;3638
1532;3641
1536;3643
1531;3646
1529;3648
1522;3650
1528;3653
1534;3655
1536;3658
1534;3660
1525;3662
1524;3665
1523;3667
1525;3671
1531;3673
1515;3675
1496;3678
1499;3680
1517;3683
1523;3685
1498;3687
1505;3690
1514;3692
1526;3695
1534;3697
1538;3699
1534;3702
1534;3704
1534;3707
1534;3709
1540;3713
1540;3715
1539;3717
1540;3720
1538;3722
1536;3725
1535;3727
1534;3729
1525;3732
1524;3734
1523;3737
1528;3739
1534;3741
1538;3744
1539;3746
1542;3749
1530;3751
1528;3753
1543;3757
1555;3759
1554;3762
1552;3764
1554;3766
1554;3769
1559;3771
1561;3774
1558;3776
1561;3778
1562;3781
1549;3783
1536;3786
1527;3788
1545;3791
1550;3793
1550;3795
1537;3799
1536;3801
1546;3804
1556;3806
1562;3808
1562;3811
1560;3813
1558;3816
1559;3818
1560;3820
1557;3823
1554;3825
1546;3828
1540;3830
1542;3832
1544;3835
1557;3837
1558;3841
1552;3843
1550;3845
1549;3848
1550;3850
1548;3853
1520;3855
1519;3858
1536;3860
1547;3862
1540;3865
1534;3867
1538;3870
1543;3872
1545;3874
1548;3877
1549;3879
1546;3883
1540;3885
1534;3887
1531;3890
1532;3892
1536;3895
1542;3897
1538;3899
1527;3902
1535;3904
1539;3907
1536;3909
1536;3911
1530;3914
1515;3916
1514;3919
1524;3921
1528;3923
1525;3927
1525;3929
1525;3932
1526;3934
1526;3937
1526;3939
1527;3941
1528;3944
1523;3946
1519;3949
1520;3951
1515;3953
1486;3956
1483;3958
1499;3961
1509;3963
1510;3965
1503;3969
1507;3971
1517;3974
1527;3976
1526;3978
1523;3981
1524;3983
1524;3986
1521;3988
1519;3990
1520;3993
1516;3995
1519;3998
1521;4000
1523;4002
1524;4005
1517;4007
1511;4011
1512;4013
1510;4015
1516;4018
1511;4020
1493;4023
1471;4025
1472;4028
1492;4030
1507;4032
1507;4035
1507;4037
1509;4040
1514;4042
1511;4044
1505;4047
1507;4049
1510;4052
1512;4055
1511;4057
1513;4060
1510;4062
1509;4065
1493;4067
1493;4069
1500;4072
1503;4074
1502;4077
1499;4079
1489;4081
1484;4084
1487;4086
1495;4089
1496;4091
1495;4093
1497;4097
1505;4099
1502;4102
1496;4104
1492;4107
1491;4109
1499;4111
1504;4114
1505;4116
1501;4119
1497;4121
1498;4123
1497;4126
1486;4128
1483;4131
1491;4133
1498;4135
1500;4139
1496;4141
1481;4144
1487;4146
1500;4148
1504;4151
1504;4153
1503;4156
1503;4158
1502;4160
1498;4163
1494;4165
1482;4168
1485;4170
1493;4172
1494;4175
1481;4177
1483;4180
1489;4183
1487;4185
1486;4188
1491;4190
1491;4193
1497;4195
1503;4198
1497;4200
1489;4202
1480;4205
1476;4207
1480;4210
1488;4212
1495;4214
1502;4217
1484;4219
1484;4222
1486;4225
1486;4227
1489;4230
1495;4232
1496;4235
1498;4237
1507;4239
1504;4242
1495;4244
1485;4247
1485;4249
1496;4251
1502;4254
1505;4256
1506;4259
1492;4261
1478;4263
1471;4267
1473;4269
1480;4272
1488;4274
1492;4276
1493;4279
1495;4281
1498;4284
1499;4286
1498;4289
1489;4291
1483;4293
1492;4296
1495;4298
1498;4301
1498;4303
1496;4305
1492;4308
1497;4311
1494;4314
1486;4316
1498;4318
1510;4321
1510;4323
1506;4326
1503;4328
1498;4330
1493;4333
1496;4335
1504;4338
1508;4340
1504;4342
1502;4345
1499;4347
1500;4350
1502;4353
1504;4356
1508;4358
1496;4360
1487;4363
1489;4365
1492;4368
1498;4370
1498;4372
1499;4375
1503;4377
1503;4380
1501;4382
1497;4384
1494;4387
1493;4389
1499;4392
1506;4395
1509;4397
1511;4400
1506;4402
1497;4405
1497;4407
1496;4409
1501;4412
1503;4414
1506;4417
1491;4419
1479;4421
1494;4424
1502;4426
1507;4429
1503;4431
1508;4434
1516;4436
1523;4439
1523;4442
1522;4444
1516;4447
1507;4449
1506;4451
1506;4454
1510;4456
1504;4459
1492;4461
1493;4463
1502;4466
1506;4468
1516;4471
1521;4473
1520;4475
1523;4478
1518;4481
1517;4484
1516;4486
1505;4488
1500;4491
1509;4493
1515;4496
1512;4498
1505;4500
1496;4503
1497;4505
1503;4508
1506;4510
1509;4513
1511;4515
1507;4517
1499;4520
1497;4523
1500;4526
1501;4528
1500;4530
1502;4533
1501;4535
1502;4538
1502;4540
1506;4542
1496;4545
1492;4547
1498;4550
1502;4552
1504;4554
1495;4557
1491;4559
1495;4562
1504;4564
1501;4567
1501;4570
1508;4572
1509;4575
1511;4577
1513;4579
1511;4582
1512;4584
1515;4587
1512;4589
1514;4592
1511;4594
1511;4596
1507;4599
1499;4601
1499;4604
1504;4606
1505;4609
1505;4612
1500;4614
1510;4617
1522;4619
1519;4621
1509;4624
1507;4626
1505;4629
1505;4631
1506;4633
1508;4636
1511;4638
1511;4641
1505;4643
1500;4645
1497;4648
1493;4651
1492;4654
1490;4656
1495;4659
1497;4661
1490;4663
1481;4666
1476;4668
1476;4671
1479;4673
1484;4675
1477;4678
1466;4680
1474;4683
1483;4685
1479;4687
1480;4690
1483;4692
1486;4696
1476;4698
1470;4700
1471;4703
1472;4705
1471;4708
1462;4710
1459;4712
1464;4715
1475;4717
1480;4720
1476;4722
1473;4724
1468;4727
1470;4729
1475;4732
1475;4734
1480;4738
1485;4740
1478;4742
1458;4745
1454;4747
1464;4750
1472;4752
1480;4754
1485;4757
1486;4759
1480;4762
1470;4764
1466;4766
1469;4769
1474;4771
1478;4774
1478;4776
1474;4779
1471;4782
1470;4784
1468;4787
1466;4789
1458;4791
1452;4794
1460;4796
1467;4799
1466;4801
1465;4803
1469;4806
1469;4808
1466;4811
1463;4813
1458;4816
1462;4818
1465;4820
1461;4824
1454;4826
1451;4829
1456;4831
1462;4833
1465;4836
1462;4838
1459;4841
1455;4843
1453;4845
1452;4848
1452;4850
1459;4853
1463;4855
1460;4857
1446;4860
1434;4862
1440;4866
1452;4868
1458;4870
1462;4873
1467;4875
1468;4878
1470;4880
1466;4882
1464;4885
1464;4887
1463;4890
1464;4892
1466;4894
1467;4897
1460;4899
1455;4902
1455;4904
1457;4907
1458;4910
1460;4912
1457;4915
1454;4917
1459;4920
1465;4922
1465;4924
1460;4927
1450;4929
1454;4932
1462;4934
1469;4936
1472;4939
1468;4941
1463;4944
1461;4946
1457;4948
1461;4952
1466;4954
1470;4957
1472;4959
1468;4961
1464;4964
1460;4966
1460;4969
1458;4971
1461;4973
1470;4976
1472;4978
1467;4981
1469;4983
1471;4986
1469;4988
1467;4990
1471;4994
1478;4996
1481;4999
1478;5001
1474;5003
1472;5006
1471;5008
1474;5011
1475;5013
1476;5015
1479;5018
1477;5020
1473;5023
1467;5025
1462;5027
1456;5030
1454;5032
1461;5036
1476;5038
1482;5040
1476;5043
1470;5045
1469;5048
1470;5050
1478;5053
1483;5055
1486;5057
1489;5060
1486;5062
1480;5065
1472;5067
1474;5069
1483;5072
1489;5074
1493;5078
1494;5080
1491;5082
1483;5085
1482;5087
1483;5090
1487;5092
1488;5094
1491;5097
1497;5099
1496;5102
1492;5104
1490;5106
1487;5109
1485;5111
1462;5114
1458;5116
1459;5118
1451;5122
1450;5124
1446;5127
1440;5129
1446;5132
1459;5134
1462;5136
1462;5139
1463;5141
1462;5144
1459;5146
1457;5148
1458;5151
1460;5153
1461;5156
1457;5158
1452;5160
1453;5164
1456;5166
1455;5169
1460;5171
1472;5173
1476;5176
1476;5178
1476;5181
1473;5183
1462;5185
1460;5188
1467;5190
1472;5193
1479;5195
1480;5197
1481;5200
1481;5202
1478;5206
1478;5208
1480;5210
1473;5213
1471;5215
1483;5218
1490;5220
1486;5223
1480;5225
1476;5227
1478;5230
1485;5232
1488;5235
1486;5237
1486;5239
1482;5242
1478;5244
1479;5248
1482;5250
1486;5252
1490;5255
1495;5257
1497;5260
1496;5262
1494;5264
1491;5267
1492;5269
1496;5272
1498;5274
1500;5276
1502;5279
1498;5281
1498;5284
1497;5286
1494;5288
1486;5292
1477;5294
1489;5297
1505;5299
1508;5301
1501;5304
1497;5306
1499;5309
1503;5311
1505;5314
1508;5316
1509;5318
1505;5321
1501;5323
1496;5326
1494;5328
1492;5330
1494;5334
1499;5336
1502;5339
1498;5341
1493;5343
1486;5346
1485;5348
1492;5351
1494;5353
1496;5355
1496;5358
1494;5360
1490;5363
1487;5365
1484;5367
1485;5370
1490;5372
1492;5376
1491;5378
1489;5381
1485;5383
1477;5385
1469;5388
1471;5390
1479;5393
1478;5395
1476;5397
1477;5400
1480;5402
1479;5405
1479;5407
1479;5409
1484;5412
